Time;Amplitude
192.08393860;1.54901958
192.08811951;1.01960790
192.08811951;0.62745100
192.09207153;0.72549021
192.09619141;0.76470590
192.10041809;1.66666663
192.10446167;1.37254906
192.10844421;1.09803927
192.10844421;0.70588237
192.11259460;0.68627453
192.11666870;1.07843137
192.12083435;1.64705884
192.12083435;1.82352936
192.12490845;1.43137252
192.12893677;0.90196079
192.13304138;1.00000000
192.13304138;1.23529410
192.13726807;1.58823526
192.14128113;1.92156863
192.14128113;1.78431368
192.14533997;1.37254906
192.14945984;0.84313726
192.15356445;0.43137255
192.15356445;0.29411766
192.15768433;0.00000000
192.16168213;0.49019608
192.16593933;0.98039216
192.16593933;1.01960790
192.16995239;0.47058824
192.17407227;0.00000000
192.17816162;0.07843138
192.17816162;0.23529412
192.18215942;0.50980395
192.18627930;1.17647064
192.18627930;1.49019611
192.19042969;1.49019611
192.19456482;0.84313726
192.19853210;0.01960784
192.19853210;0.17647059
192.20269775;0.45098040
192.20684814;0.27450982
192.21099854;0.00000000
192.21099854;0.15686275
192.21495056;0.23529412
192.21908569;0.56862748
192.22322083;1.37254906
192.22322083;1.43137252
192.22734070;1.11764705
192.23146057;0.86274511
192.23146057;0.76470590
192.23545837;1.21568632
192.23960876;1.72549021
192.24368286;1.64705884
192.24368286;1.86274505
192.24777222;2.09803915
192.25192261;1.78431368
192.25592041;1.56862748
192.25592041;1.76470590
192.26002502;2.15686274
192.26417542;2.29411769
192.26834106;2.13725495
192.26834106;2.00000000
192.27233887;1.62745094
192.27647400;1.54901958
192.27647400;1.39215684
192.28060913;1.23529410
192.28457642;0.94117647
192.28868103;0.60784316
192.28868103;0.47058824
192.29284668;0.37254903
192.29696655;0.39215687
192.30107117;0.80392158
192.30107117;1.00000000
192.30505371;0.43137255
192.30921936;0.00000000
192.31333923;0.27450982
192.31745911;0.19607843
192.32162476;0.00000000
192.32162476;0.00000000
192.32562256;0.00000000
192.32972717;0.00000000
192.33383179;0.00000000
192.33383179;0.00000000
192.33793640;0.00000000
192.34191895;0.00000000
192.34609985;0.00000000
192.34609985;0.00000000
192.35021973;0.00000000
192.35433960;0.00000000
192.35845947;0.00000000
192.36250305;0.00000000
192.36654663;0.00000000
192.36654663;0.01960784
192.37066650;0.31372550
192.37477112;0.64705884
192.37901306;0.92156863
192.37901306;0.94117647
192.38290405;0.74509805
192.38706970;0.00000000
192.39117432;0.00000000
192.39117432;0.00000000
192.39520264;0.00000000
192.39933777;0.00000000
192.40347290;0.00000000
192.40760803;0.00000000
192.41168213;0.00000000
192.41168213;0.00000000
192.41567993;0.00000000
192.41981506;0.00000000
192.42396545;0.00000000
192.42396545;0.00000000
192.42797852;0.00000000
192.43209839;0.00000000
192.43623352;0.00000000
192.43623352;0.00000000
192.44033813;0.00000000
192.44445801;0.00000000
192.44845581;0.00000000
192.45263672;0.00000000
192.45672607;0.00000000
192.45672607;0.00000000
192.46081543;0.00000000
192.46493530;0.00000000
192.46896362;0.00000000
192.46896362;0.00000000
192.47306824;0.00000000
192.47721863;0.00000000
192.48133850;0.00000000
192.48133850;0.00000000
192.48533630;0.00000000
192.48947144;0.00000000
192.49359131;0.00000000
192.49766541;0.00000000
192.50183105;0.00000000
192.50183105;0.00000000
192.50593567;0.00000000
192.50991821;0.00000000
192.51405334;0.00000000
192.51405334;0.00000000
192.51821899;0.23529412
192.52220154;2.47058821
192.52629089;4.98039198
192.52629089;5.00000000
192.53047180;4.98039198
192.53454590;5.00000000
192.53857422;5.00000000
192.54264832;5.00000000
192.54695129;5.00000000
192.54695129;5.00000000
192.55094910;5.00000000
192.55505371;5.00000000
192.55905151;5.00000000
192.55905151;5.00000000
192.56317139;5.00000000
192.56729126;5.00000000
192.57142639;4.98039198
192.57142639;4.98039198
192.57542419;5.00000000
192.57954407;4.98039198
192.58367920;5.00000000
192.58781433;4.98039198
192.59191895;5.00000000
192.59191895;4.94117641
192.59596252;4.76470566
192.60011292;4.98039198
192.60423279;4.98039198
192.60423279;4.98039198
192.60835266;4.90196085
192.61230469;4.43137264
192.61640930;4.98039198
192.61640930;5.00000000
192.62055969;5.00000000
192.62463379;5.00000000
192.62869263;5.00000000
192.63290405;5.00000000
192.63693237;5.00000000
192.63693237;5.00000000
192.64102173;5.00000000
192.64520264;5.00000000
192.64920044;5.00000000
192.64920044;4.98039198
192.65330505;5.00000000
192.65744019;4.98039198
192.66156006;4.98039198
192.66156006;3.98039222
192.66554260;0.60784316
192.66969299;0.00000000
192.66969299;0.00000000
192.67375183;0.00000000
192.67785645;0.00000000
192.68203735;0.00000000
192.68203735;0.00000000
192.68601990;0.00000000
192.69017029;0.00000000
192.69427490;0.00000000
192.69427490;0.00000000
192.69839478;0.00000000
192.70240784;0.00000000
192.70654297;0.00000000
192.70654297;0.00000000
192.71066284;0.00000000
192.71478271;0.00000000
192.71478271;0.00000000
192.71893311;0.00000000
192.72290039;0.00000000
192.72705078;0.00000000
192.72705078;0.00000000
192.73118591;0.00000000
192.73516846;0.00000000
192.73928833;0.39215687
192.73928833;0.58823532
192.74340820;0.25490198
192.74751282;0.00000000
192.75167847;0.00000000
192.75167847;0.00000000
192.75569153;0.25490198
192.75988770;1.49019611
192.75988770;2.74509811
192.76388550;3.64705873
192.76806641;4.52941179
192.77220154;4.98039198
192.77220154;4.98039198
192.77619934;4.98039198
192.78031921;4.98039198
192.78439331;4.98039198
192.78439331;3.98039222
192.78857422;3.05882359
192.79254150;1.90196073
192.79666138;2.00000000
192.79666138;2.27450991
192.80078125;2.49019599
192.80491638;1.74509799
192.80491638;0.52941179
192.80888367;0.00000000
192.81303406;0.00000000
192.81715393;0.23529412
192.81715393;0.72549021
192.82127380;1.11764705
192.82525635;0.68627453
192.82943726;0.25490198
192.82943726;0.11764706
192.83355713;0.72549021
192.83769226;1.92156863
192.84178162;3.17647052
192.84591675;2.62745094
192.84989929;1.74509799
192.84989929;0.90196079
192.85404968;1.15686274
192.85818481;1.78431368
192.86230469;2.49019599
192.86230469;1.94117641
192.86625671;1.11764705
192.87040710;0.56862748
192.87451172;0.39215687
192.87451172;1.25490201
192.87864685;2.13725495
192.88262939;2.80392146
192.88690186;1.31372547
192.89086914;1.27450979
192.89506531;1.90196073
192.89506531;2.64705873
192.89904785;3.66666675
192.90319824;4.03921556
192.90730286;3.78431368
192.90730286;3.70588231
192.91145325;3.80392146
192.91545105;4.80392170
192.91957092;4.98039198
192.91957092;4.98039198
192.92367554;4.98039198
192.92781067;4.98039198
192.93193054;4.98039198
192.93589783;4.98039198
192.94006348;4.98039198
192.94006348;4.98039198
192.94416809;4.98039198
192.94828796;4.98039198
192.95242310;4.80392170
192.95242310;4.98039198
192.95643616;4.98039198
192.96057129;4.98039198
192.96467590;4.98039198
192.96467590;4.98039198
192.96881104;4.98039198
192.97294617;4.98039198
192.97694397;5.00000000
192.98107910;4.98039198
192.98516846;4.98039198
192.98516846;4.98039198
192.98913574;4.98039198
192.99327087;4.98039198
192.99739075;4.98039198
192.99739075;4.98039198
193.00154114;4.98039198
193.00567627;4.98039198
193.00965881;4.66666651
193.00965881;4.49019623
193.01388550;4.90196085
193.01794434;4.98039198
193.02206421;4.98039198
193.02601624;4.49019623
193.03016663;3.98039222
193.03016663;3.76470590
193.03428650;4.60784292
193.03842163;4.98039198
193.04255676;4.98039198
193.04255676;4.84313726
193.04653931;4.66666651
193.05067444;4.19607830
193.05476379;4.11764717
193.05476379;4.98039198
193.05888367;4.98039198
193.06288147;4.98039198
193.06713867;4.31372547
193.07113647;3.56862736
193.07524109;3.90196085
193.07524109;4.60784292
193.07925415;4.98039198
193.08341980;4.98039198
193.08753967;4.13725471
193.08753967;3.37254906
193.09170532;2.94117641
193.09567261;3.31372547
193.09986877;4.03921556
193.09986877;4.80392170
193.10386658;4.45098019
193.10804749;3.58823538
193.11215210;2.60784316
193.11614990;3.62745094
193.12031555;4.39215708
193.12031555;4.98039198
193.12442017;4.50980377
193.12857056;3.76470590
193.13264465;3.21568632
193.13264465;3.35294127
193.13671875;3.96078420
193.14077759;4.45098019
193.14492798;4.96078444
193.14492798;3.98039222
193.14904785;3.27450991
193.15316772;2.70588231
193.15316772;3.25490189
193.15713501;4.01960802
193.16125488;4.70588255
193.16537476;4.21568632
193.16537476;3.84313726
193.16938782;3.15686274
193.17353821;2.90196085
193.17765808;3.56862736
193.17765808;4.27450991
193.18176270;4.98039198
193.18589783;4.49019623
193.18991089;3.86274505
193.18991089;2.90196085
193.19401550;3.00000000
193.19813538;3.86274505
193.19813538;4.70588255
193.20228577;4.74509811
193.20628357;3.96078420
193.21038818;3.05882359
193.21038818;2.62745094
193.21455383;3.23529410
193.21867371;3.98039222
193.22279358;4.64705896
193.22279358;4.45098019
193.22697449;3.39215684
193.23091125;2.84313726
193.23504639;2.45098042
193.23504639;3.31372547
193.23919678;3.88235283
193.24319458;4.41176462
193.24319458;4.00000000
193.24732971;3.35294127
193.25144958;2.80392146
193.25558472;3.29411769
193.25558472;4.29411745
193.25958252;4.98039198
193.26368713;4.90196085
193.26791382;4.09803915
193.26791382;3.15686274
193.27191162;2.58823538
193.27603149;3.01960778
193.28005981;3.58823538
193.28005981;4.35294104
193.28413391;4.09803915
193.28833008;3.41176462
193.28833008;2.60784316
193.29248047;2.43137264
193.29643250;3.00000000
193.30050659;4.09803915
193.30050659;4.62745094
193.30468750;4.09803915
193.30877686;3.23529410
193.31292725;2.64705873
193.31292725;3.01960778
193.31690979;3.96078420
193.32106018;4.64705896
193.32514954;4.47058821
193.32514954;3.39215684
193.32933044;2.82352948
193.33331299;2.74509811
193.33331299;3.58823538
193.33744812;4.15686274
193.34156799;4.98039198
193.34570313;4.54901981
193.34570313;4.07843161
193.34968567;3.31372547
193.35391235;2.96078420
193.35792542;3.84313726
193.35792542;4.29411745
193.36204529;4.66666651
193.36614990;4.25490189
193.37016296;2.74509811
193.37426758;2.96078420
193.37840271;3.56862736
193.37840271;4.21568632
193.38252258;4.19607830
193.38656616;3.29411769
193.39064026;2.54901958
193.39064026;2.15686274
193.39476013;2.64705873
193.39888000;3.78431368
193.40306091;4.47058821
193.40306091;3.98039222
193.40704346;3.13725495
193.41120911;2.41176462
193.41531372;3.27450991
193.41943359;3.96078420
193.42356873;4.64705896
193.42356873;4.01960802
193.42750549;3.05882359
193.43167114;2.39215684
193.43576050;2.11764717
193.43576050;2.84313726
193.43989563;3.60784316
193.44389343;4.09803915
193.44801331;3.92156863
193.44801331;4.03921556
193.45213318;4.58823538
193.45631409;4.98039198
193.46029663;4.98039198
193.46443176;4.98039198
193.46855164;4.82352924
193.46855164;3.54901958
193.47268677;2.68627453
193.47668457;3.03921580
193.48091125;3.54901958
193.48091125;4.05882359
193.48489380;3.29411769
193.48902893;2.37254906
193.49314880;1.66666663
193.49314880;2.13725495
193.49711609;3.01960778
193.50128174;4.00000000
193.50538635;3.19607854
193.50950623;2.29411769
193.51348877;1.80392158
193.51348877;2.41176462
193.51762390;3.21568632
193.52177429;3.96078420
193.52589417;3.76470590
193.52589417;2.68627453
193.52992249;1.64705884
193.53399658;1.72549021
193.53817749;2.41176462
193.53817749;3.37254906
193.54228210;3.90196085
193.54643250;3.21568632
193.55043030;1.41176474
193.55450439;1.88235295
193.55863953;2.92156863
193.55863953;3.84313726
193.56272888;4.05882359
193.56690979;3.01960778
193.57090759;2.39215684
193.57090759;1.96078432
193.57501221;2.45098042
193.57913208;3.41176462
193.58332825;4.31372547
193.58332825;3.78431368
193.58731079;2.82352948
193.59144592;1.98039210
193.59558105;3.01960778
193.59963989;3.84313726
193.60375977;4.29411745
193.60375977;3.66666675
193.60786438;3.05882359
193.61189270;2.25490189
193.61604309;2.54901958
193.61604309;3.43137264
193.62001038;4.31372547
193.62409973;4.31372547
193.62829590;3.39215684
193.62829590;2.66666675
193.63240051;2.35294127
193.63653564;3.05882359
193.64050293;4.21568632
193.64466858;4.23529434
193.64877319;3.76470590
193.64877319;2.78431368
193.65292358;2.94117641
193.65692139;4.13725471
193.66102600;4.96078444
193.66102600;4.98039198
193.66519165;4.43137264
193.66929626;3.43137264
193.67343140;2.39215684
193.67343140;2.86274505
193.67738342;3.74509811
193.68150330;4.58823538
193.68150330;4.56862736
193.68565369;3.64705873
193.68978882;2.74509811
193.69390869;2.11764717
193.69390869;2.82352948
193.69789124;3.49019599
193.70204163;3.98039222
193.70617676;3.11764717
193.70617676;1.90196073
193.71017456;0.90196079
193.71430969;0.80392158
193.71841431;1.68627453
193.71841431;2.58823538
193.72254944;2.68627453
193.72669983;1.94117641
193.72669983;1.05882359
193.73066711;0.13725491
193.73490906;0.68627453
193.73887634;1.66666663
193.73887634;2.66666675
193.74299622;2.39215684
193.74699402;1.84313726
193.75120544;1.13725495
193.75120544;0.64705884
193.75527954;1.25490201
193.75936890;2.09803915
193.76351929;2.78431368
193.76351929;2.29411769
193.76751709;1.68627453
193.77168274;0.94117647
193.77168274;0.92156863
193.77575684;1.66666663
193.77987671;2.62745094
193.78399658;3.01960778
193.78399658;2.17647052
193.78805542;1.47058821
193.79217529;1.07843137
193.79634094;1.39215684
193.79634094;2.27450991
193.80024719;3.15686274
193.80438232;3.07843137
193.80850220;2.13725495
193.80850220;1.25490201
193.81263733;1.05882359
193.81675720;2.03921580
193.81675720;2.90196085
193.82089233;3.41176462
193.82489014;3.19607854
193.82908630;2.31372547
193.82908630;1.07843137
193.83317566;0.96078432
193.83711243;2.37254906
193.84127808;2.90196085
193.84127808;3.41176462
193.84541321;2.76470590
193.84953308;2.19607854
193.85369873;1.50980389
193.85369873;1.88235295
193.85763550;2.33333325
193.86189270;3.33333325
193.86189270;3.31372547
193.86590576;2.50980401
193.87004089;1.70588231
193.87414551;1.27450979
193.87414551;2.23529410
193.87815857;2.82352948
193.88230896;3.56862736
193.88645935;3.19607854
193.88645935;2.23529410
193.89045715;1.11764705
193.89456177;1.58823526
193.89863586;3.19607854
193.90280151;3.47058821
193.90695190;2.60784316
193.90695190;1.96078432
193.91091919;1.15686274
193.91505432;1.37254906
193.91917419;2.17647052
193.91917419;3.19607854
193.92330933;3.17647052
193.92727661;2.52941179
193.93141174;2.00000000
193.93141174;1.72549021
193.93553162;2.31372547
193.93968201;3.13725495
193.94378662;2.98039222
193.94789124;2.03921580
193.95193481;1.43137252
193.95193481;1.68627453
193.95602417;2.47058821
193.96017456;3.27450991
193.96430969;3.62745094
193.96430969;2.86274505
193.96829224;2.21568632
193.97241211;1.60784316
193.97654724;1.90196073
193.97654724;2.66666675
193.98054504;3.58823538
193.98466492;3.41176462
193.98893738;1.84313726
193.99291992;1.52941179
193.99705505;2.52941179
193.99705505;3.47058821
194.00105286;4.00000000
194.00518799;3.49019599
194.00930786;2.66666675
194.00930786;1.96078432
194.01344299;2.27450991
194.01741028;2.56862736
194.02153015;3.56862736
194.02153015;4.15686274
194.02565002;3.27450991
194.02973938;2.52941179
194.03388977;1.70588231
194.03790283;2.56862736
194.04202271;3.43137264
194.04202271;3.15686274
194.04615784;2.03921580
194.05023193;1.09803927
194.05438232;1.19607842
194.05438232;2.07843137
194.05836487;2.88235283
194.06251526;3.52941179
194.06665039;2.98039222
194.06665039;2.13725495
194.07064819;1.11764705
194.07487488;1.43137252
194.07888794;2.96078420
194.08303833;3.43137264
194.08717346;2.66666675
194.08717346;2.07843137
194.09114075;1.64705884
194.09527588;2.03921580
194.09941101;2.62745094
194.09941101;3.58823538
194.10353088;3.49019599
194.10751343;2.80392146
194.11163330;3.09803915
194.11163330;3.92156863
194.11575317;4.98039198
194.11990356;4.98039198
194.12400818;4.98039198
194.12800598;4.60784292
194.13212585;3.11764717
194.13212585;2.37254906
194.13629150;2.43137264
194.14036560;2.86274505
194.14447021;2.96078420
194.14447021;2.15686274
194.14846802;1.43137252
194.15266418;0.80392158
194.15675354;1.23529410
194.15675354;2.03921580
194.16088867;2.80392146
194.16487122;2.80392146
194.16902161;0.82352942
194.17315674;0.52941179
194.17723083;1.39215684
194.17723083;2.33333325
194.18124390;2.92156863
194.18537903;2.19607854
194.18951416;1.47058821
194.18951416;0.92156863
194.19363403;1.27450979
194.19761658;2.05882359
194.20188904;2.96078420
194.20188904;3.15686274
194.20587158;2.31372547
194.21002197;1.66666663
194.21002197;0.49019608
194.21414185;1.17647064
194.21813965;2.31372547
194.22227478;3.29411769
194.22227478;3.15686274
194.22639465;2.29411769
194.23051453;1.41176474
194.23463440;1.21568632
194.23463440;2.13725495
194.23861694;3.05882359
194.24275208;3.58823538
194.24687195;3.05882359
194.24687195;2.27450991
194.25086975;1.45098042
194.25500488;1.68627453
194.25500488;2.58823538
194.25910950;3.56862736
194.26322937;3.84313726
194.26736450;2.88235283
194.26736450;2.50980401
194.27137756;1.94117641
194.27552795;2.41176462
194.27963257;3.52941179
194.27963257;4.60784292
194.28376770;4.45098019
194.28793335;3.47058821
194.29190063;2.80392146
194.29190063;2.31372547
194.29605103;3.23529410
194.30012512;4.11764717
194.30012512;4.82352924
194.30426025;4.31372547
194.30825806;3.43137264
194.31237793;2.58823538
194.31237793;2.92156863
194.31651306;3.78431368
194.32066345;4.88235283
194.32473755;4.96078444
194.32473755;4.15686274
194.32887268;3.27450991
194.33290100;2.54901958
194.33705139;3.11764717
194.33705139;3.96078420
194.34117126;4.78431368
194.34518433;4.49019623
194.34518433;3.56862736
194.34928894;2.39215684
194.35342407;1.80392158
194.35757446;2.64705873
194.35757446;3.33333325
194.36152649;3.56862736
194.36564636;3.15686274
194.36985779;2.19607854
194.36985779;0.92156863
194.37387085;1.07843137
194.37786865;1.82352936
194.38198853;2.80392146
194.38198853;3.09803915
194.38610840;2.15686274
194.39030457;1.07843137
194.39030457;0.43137255
194.39440918;0.68627453
194.39839172;1.56862748
194.40251160;2.54901958
194.40251160;2.39215684
194.40664673;1.37254906
194.41075134;0.29411766
194.41487122;0.05882353
194.41487122;1.00000000
194.41886902;2.00000000
194.42301941;2.62745094
194.42710876;1.33333337
194.43112183;0.64705884
194.43522644;0.90196079
194.43522644;1.70588231
194.43937683;2.56862736
194.44348145;2.78431368
194.44760132;1.72549021
194.44760132;1.27450979
194.45162964;0.76470590
194.45574951;1.43137252
194.45986938;2.47058821
194.45986938;3.01960778
194.46401978;2.72549009
194.46800232;2.03921580
194.47212219;0.90196079
194.47627258;1.68627453
194.48040771;2.45098042
194.48040771;2.92156863
194.48449707;2.39215684
194.48847961;1.64705884
194.49258423;0.82352942
194.49258423;0.88235295
194.49673462;1.68627453
194.50085449;2.96078420
194.50498962;3.19607854
194.50498962;2.15686274
194.50895691;1.11764705
194.51309204;0.76470590
194.51722717;2.49019599
194.52128601;3.54901958
194.52537537;3.27450991
194.52537537;2.15686274
194.52954102;1.11764705
194.53366089;0.70588237
194.53776550;1.60784316
194.53776550;2.64705873
194.54188538;3.45098042
194.54592896;2.98039222
194.54998779;2.01960778
194.54998779;1.23529410
194.55413818;1.49019611
194.55822754;2.01960778
194.56225586;3.35294127
194.56637573;2.56862736
194.57049561;1.72549021
194.57049561;1.15686274
194.57463074;1.82352936
194.57864380;2.78431368
194.58290100;3.88235283
194.58290100;3.49019599
194.58689880;2.37254906
194.59104919;1.13725495
194.59516907;0.84313726
194.59516907;1.76470590
194.59916687;2.96078420
194.60327148;3.70588231
194.60743713;2.19607854
194.61154175;1.39215684
194.61550903;1.41176474
194.61550903;2.19607854
194.61959839;3.52941179
194.62374878;3.54901958
194.62786865;2.58823538
194.62786865;1.64705884
194.63185120;1.05882359
194.63601685;1.76470590
194.64016724;2.76470590
194.64016724;3.41176462
194.64428711;3.15686274
194.64840698;2.21568632
194.65240479;1.33333337
194.65653992;2.09803915
194.66067505;3.11764717
194.66067505;3.64705873
194.66476440;2.90196085
194.66889954;1.86274505
194.67289734;1.17647064
194.67289734;1.72549021
194.67704773;2.72549009
194.68115234;3.60784316
194.68528748;3.47058821
194.68528748;2.60784316
194.68928528;1.72549021
194.69342041;1.27450979
194.69754028;2.60784316
194.70156860;3.54901958
194.70567322;3.17647052
194.70567322;1.88235295
194.70985413;1.31372547
194.71386719;1.11764705
194.71803284;1.98039210
194.71803284;3.01960778
194.72198486;3.62745094
194.72615051;2.90196085
194.73027039;1.78431368
194.73027039;1.03921568
194.73435974;1.39215684
194.73849487;2.31372547
194.73849487;3.19607854
194.74247742;3.25490189
194.74661255;2.35294127
194.75076294;1.23529410
194.75076294;0.66666669
194.75486755;1.39215684
194.75885010;2.01960778
194.76301575;3.13725495
194.76301575;3.78431368
194.76710510;3.62745094
194.77127075;3.56862736
194.77539063;4.33333349
194.77539063;4.98039198
194.77938843;4.98039198
194.78352356;4.98039198
194.78352356;4.39215708
194.78764343;2.80392146
194.79162598;2.00000000
194.79585266;1.80392158
194.79585266;2.50980401
194.79995728;3.41176462
194.80409241;3.43137264
194.80812073;2.37254906
194.80812073;1.29411769
194.81210327;0.52941179
194.81623840;1.27450979
194.82038879;2.33333325
194.82038879;3.11764717
194.82450867;2.94117641
194.82861328;1.90196073
194.82861328;0.96078432
194.83259583;0.78431374
194.83673096;1.70588231
194.84089661;2.50980401
194.84089661;3.03921580
194.84503174;2.43137264
194.84898376;1.27450979
194.85311890;0.76470590
194.85311890;1.17647064
194.85726929;2.13725495
194.86134338;3.27450991
194.86547852;3.29411769
194.86547852;2.43137264
194.86947632;1.62745094
194.87361145;1.11764705
194.87361145;1.78431368
194.87773132;2.54901958
194.88183594;3.25490189
194.88584900;3.01960778
194.88584900;2.27450991
194.88995361;1.43137252
194.89414978;1.47058821
194.89825439;2.25490189
194.89825439;3.07843137
194.90225220;3.49019599
194.90637207;2.66666675
194.91047668;1.80392158
194.91047668;1.07843137
194.91462708;1.45098042
194.91874695;2.39215684
194.91874695;3.19607854
194.92286682;3.45098042
194.92686462;2.60784316
194.93101501;1.76470590
194.93101501;1.62745094
194.93511963;2.37254906
194.93911743;3.43137264
194.94323730;4.23529434
194.94323730;3.98039222
194.94737244;2.92156863
194.95149231;1.94117641
194.95547485;2.94117641
194.95959473;3.98039222
194.96386719;4.62745094
194.96386719;3.96078420
194.96786499;3.11764717
194.97201538;2.41176462
194.97598267;2.64705873
194.97598267;3.70588231
194.98013306;4.70588255
194.98423767;4.70588255
194.98834229;3.78431368
194.98834229;2.90196085
194.99235535;2.49019599
194.99647522;2.92156863
195.00059509;4.70588255
195.00473022;3.84313726
195.00883484;2.62745094
195.00883484;1.80392158
195.01287842;1.76470590
195.01704407;2.45098042
195.02114868;3.35294127
195.02114868;3.74509811
195.02525330;2.64705873
195.02923584;1.39215684
195.03335571;0.78431374
195.03335571;1.27450979
195.03747559;1.78431368
195.04162598;2.74509811
195.04576111;1.70588231
195.04986572;0.68627453
195.05384827;0.17647059
195.05384827;0.98039216
195.05796814;1.72549021
195.06213379;2.15686274
195.06610107;1.76470590
195.06610107;1.21568632
195.07025146;0.54901963
195.07434082;0.37254903
195.07853699;1.25490201
195.07853699;2.31372547
195.08250427;2.76470590
195.08663940;1.90196073
195.09080505;0.29411766
195.09489441;0.64705884
195.09902954;1.66666663
195.09902954;2.94117641
195.10301208;2.80392146
195.10716248;2.07843137
195.11122131;1.27450979
195.11122131;0.54901963
195.11535645;1.09803927
195.11933899;2.09803915
195.12348938;3.03921580
195.12348938;2.84313726
195.12760925;1.90196073
195.13172913;0.78431374
195.13586426;1.78431368
195.13990784;2.74509811
195.14404297;3.33333325
195.14404297;2.56862736
195.14816284;1.94117641
195.15216064;1.13725495
195.15626526;1.37254906
195.15626526;2.21568632
195.16040039;3.15686274
195.16456604;3.17647052
195.16864014;2.37254906
195.16864014;1.35294116
195.17263794;0.90196079
195.17686462;1.41176474
195.18083191;3.29411769
195.18499756;3.17647052
195.18914795;2.43137264
195.18914795;1.50980389
195.19311523;1.52941179
195.19723511;2.43137264
195.20143127;3.27450991
195.20143127;3.76470590
195.20553589;2.94117641
195.20951843;2.01960778
195.21365356;1.62745094
195.21365356;1.68627453
195.21775818;2.50980401
195.22187805;3.27450991
195.22586060;2.64705873
195.23001099;1.56862748
195.23414612;1.07843137
195.23414612;1.80392158
195.23822021;2.49019599
195.24235535;3.52941179
195.24633789;3.21568632
195.24633789;2.25490189
195.25048828;1.45098042
195.25460815;1.47058821
195.25871277;2.31372547
195.25871277;3.35294127
195.26281738;3.62745094
195.26686096;2.84313726
195.26686096;1.78431368
195.27101135;0.98039216
195.27513123;1.39215684
195.27925110;2.29411769
195.27925110;3.58823538
195.28323364;3.54901958
195.28736877;2.54901958
195.29147339;1.58823526
195.29147339;1.05882359
195.29563904;1.90196073
195.29959106;3.05882359
195.30384827;3.84313726
195.30384827;3.41176462
195.30784607;2.33333325
195.31198120;1.45098042
195.31198120;1.56862748
195.31597900;2.52941179
195.32011414;3.29411769
195.32423401;3.76470590
195.32423401;3.03921580
195.32838440;1.94117641
195.33236694;1.31372547
195.33650208;1.98039210
195.33650208;2.88235283
195.34062195;3.92156863
195.34477234;3.70588231
195.34886169;2.84313726
195.34886169;1.82352936
195.35285950;1.31372547
195.35697937;1.86274505
195.35697937;2.90196085
195.36106873;3.66666675
195.36520386;3.17647052
195.36932373;2.25490189
195.36932373;1.27450979
195.37333679;1.43137252
195.37747192;2.33333325
195.38160706;3.17647052
195.38160706;3.33333325
195.38577271;2.56862736
195.38990784;1.70588231
195.39387512;1.15686274
195.39387512;1.78431368
195.39801025;2.62745094
195.40216064;3.64705873
195.40216064;3.52941179
195.40615845;2.49019599
195.41026306;1.45098042
195.41439819;1.05882359
195.41439819;1.68627453
195.41850281;2.82352948
195.42247009;3.66666675
195.42660522;3.21568632
195.42660522;2.92156863
195.43074036;2.88235283
195.43487549;3.68627453
195.43907166;4.98039198
195.44299316;4.98039198
195.44715881;4.98039198
195.44715881;4.76470566
195.45127869;3.72549009
195.45541382;3.60784316
195.45948792;3.68627453
195.45948792;3.90196085
195.46348572;3.52941179
195.46766663;2.49019599
195.47177124;1.49019611
195.47177124;0.84313726
195.47586060;1.64705884
195.47984314;2.98039222
195.48394775;3.09803915
195.48809814;1.98039210
195.49220276;1.21568632
195.49220276;1.25490201
195.49623108;1.88235295
195.50039673;2.94117641
195.50451660;3.29411769
195.50451660;2.41176462
195.50860596;1.54901958
195.51274109;0.92156863
195.51690674;1.49019611
195.51690674;2.64705873
195.52087402;3.76470590
195.52502441;3.19607854
195.52912903;1.23529410
195.53312683;1.00000000
195.53724670;1.94117641
195.53724670;2.88235283
195.54141235;3.62745094
195.54551697;3.29411769
195.54963684;2.23529410
195.54963684;1.07843137
195.55361938;1.37254906
195.55773926;2.23529410
195.56185913;3.47058821
195.56185913;4.01960802
195.56600952;3.35294127
195.57003784;2.43137264
195.57414246;2.00000000
195.57823181;2.58823538
195.58235168;3.33333325
195.58235168;3.43137264
195.58636475;2.82352948
195.59051514;1.84313726
195.59461975;1.58823526
195.59461975;2.60784316
195.59875488;3.70588231
195.60285950;4.43137264
195.60684204;3.84313726
195.60684204;2.92156863
195.61094666;1.78431368
195.61508179;2.09803915
195.61920166;4.33333349
195.62322998;4.60784292
195.62734985;3.80392146
195.62734985;2.90196085
195.63145447;2.27450991
195.63560486;2.92156863
195.63977051;4.01960802
195.63977051;4.94117641
195.64384460;4.64705896
195.64784241;3.76470590
195.65199280;2.68627453
195.65199280;2.39215684
195.65612793;3.19607854
195.66012573;4.00000000
195.66426086;3.98039222
195.66835022;3.01960778
195.67250061;2.00000000
195.67250061;2.03921580
195.67646790;2.86274505
195.68060303;3.37254906
195.68482971;3.60784316
195.68482971;2.78431368
195.68882751;1.80392158
195.69296265;0.92156863
195.69694519;1.21568632
195.69694519;2.21568632
195.70106506;3.27450991
195.70520020;3.17647052
195.70932007;0.88235295
195.71334839;0.49019608
195.71743774;1.27450979
195.71743774;1.92156863
195.72163391;2.66666675
195.72576904;2.11764717
195.72984314;1.21568632
195.72984314;0.23529412
195.73384094;0.41176471
195.73799133;1.29411769
195.74209595;2.31372547
195.74209595;2.76470590
195.74624634;1.62745094
195.75024414;0.72549021
195.75436401;0.80392158
195.75846863;1.88235295
195.76264954;2.92156863
195.76264954;2.47058821
195.76661682;1.64705884
195.77087402;0.70588237
195.77487183;0.43137255
195.77487183;1.17647064
195.77899170;2.01960778
195.78314209;2.74509811
195.78715515;2.25490189
195.78715515;1.66666663
195.79129028;0.74509805
195.79541016;1.25490201
195.79541016;2.25490189
195.79953003;3.17647052
195.80352783;3.50980401
195.80764771;2.64705873
195.80764771;1.49019611
195.81176758;0.54901963
195.81588745;1.33333337
195.81999207;2.43137264
195.81999207;3.21568632
195.82397461;3.01960778
195.82809448;1.88235295
195.83221436;1.01960790
195.83221436;0.90196079
195.83641052;1.82352936
195.84037781;3.00000000
195.84037781;3.58823538
195.84451294;2.90196085
195.84863281;1.82352936
195.85275269;1.01960790
195.85275269;1.25490201
195.85685730;2.01960778
195.86087036;3.00000000
195.86499023;3.37254906
195.86499023;2.49019599
195.86909485;1.25490201
195.87322998;0.86274511
195.87722778;1.90196073
195.87722778;2.68627453
195.88131714;3.56862736
195.88549805;3.41176462
195.88549805;2.37254906
195.88961792;1.62745094
195.89356995;1.45098042
195.89784241;2.17647052
195.89784241;3.03921580
195.90187073;3.80392146
195.90599060;3.25490189
195.91012573;1.78431368
195.91012573;0.66666669
195.91412354;1.31372547
195.91822815;2.41176462
195.92233276;3.49019599
195.92233276;3.58823538
195.92645264;2.60784316
195.93045044;1.49019611
195.93045044;0.98039216
195.93463135;1.72549021
195.93872070;2.64705873
195.94282532;3.52941179
195.94282532;3.37254906
195.94682312;2.64705873
195.95101929;1.60784316
195.95513916;1.29411769
195.95513916;2.13725495
195.95924377;2.92156863
195.96337891;3.64705873
195.96733093;3.09803915
195.96733093;2.07843137
195.97151184;1.25490201
195.97561646;1.54901958
195.97561646;2.60784316
195.97976685;3.19607854
195.98379517;3.19607854
195.98786926;2.37254906
195.98786926;1.41176474
195.99195862;0.88235295
195.99610901;1.41176474
196.00022888;2.50980401
196.00022888;3.27450991
196.00424194;2.98039222
196.00834656;2.45098042
196.01251221;1.23529410
196.01663208;1.96078432
196.02075195;3.13725495
196.02075195;3.82352948
196.02482605;3.17647052
196.02883911;2.21568632
196.03294373;1.43137252
196.03294373;1.88235295
196.03695679;2.98039222
196.04107666;3.98039222
196.04522705;4.19607830
196.04522705;3.31372547
196.04936218;2.56862736
196.05345154;2.01960778
196.05744934;3.45098042
196.06159973;4.11764717
196.06570435;3.60784316
196.06570435;2.64705873
196.06987000;1.56862748
196.07383728;1.54901958
196.07797241;2.39215684
196.07797241;3.37254906
196.08213806;3.80392146
196.08625793;2.96078420
196.09037781;1.86274505
196.09037781;0.88235295
196.09436035;1.41176474
196.09849548;2.50980401
196.10261536;3.90196085
196.10675049;2.88235283
196.11083984;1.86274505
196.11083984;1.23529410
196.11485291;1.72549021
196.11897278;2.49019599
196.12310791;3.60784316
196.12310791;3.31372547
196.12709045;2.23529410
196.13121033;1.47058821
196.13540649;1.92156863
196.13540649;3.27450991
196.13951111;4.98039198
196.14363098;4.98039198
196.14761353;4.92156839
196.15187073;4.50980377
196.15585327;4.98039198
196.15585327;4.98039198
196.16000366;4.98039198
196.16398621;4.58823538
196.16812134;3.00000000
196.16812134;1.50980389
196.17225647;0.82352942
196.17636108;1.56862748
196.18051147;2.47058821
196.18051147;3.31372547
196.18450928;3.13725495
196.18862915;1.92156863
196.19277954;1.17647064
196.19688416;2.17647052
196.20092773;3.03921580
196.20092773;3.54901958
196.20503235;2.82352948
196.20909119;1.88235295
196.21321106;1.03921568
196.21321106;1.23529410
196.21719360;1.96078432
196.22137451;2.72549009
196.22549438;2.72549009
196.22549438;2.23529410
196.22962952;1.31372547
196.23373413;0.90196079
196.23785400;2.62745094
196.24182129;3.66666675
196.24600220;3.37254906
196.24600220;2.33333325
196.25007629;1.50980389
196.25411987;1.33333337
196.25820923;1.72549021
196.25820923;2.62745094
196.26239014;3.13725495
196.26651001;2.78431368
196.27062988;2.00000000
196.27062988;1.21568632
196.27459717;1.62745094
196.27888489;2.49019599
196.28283691;3.72549009
196.28698730;2.84313726
196.29112244;1.96078432
196.29112244;1.50980389
196.29512024;2.27450991
196.29930115;3.25490189
196.30342102;4.09803915
196.30342102;3.80392146
196.30735779;2.78431368
196.31147766;1.76470590
196.31559753;1.80392158
196.31559753;2.86274505
196.31979370;3.86274505
196.32388306;4.52941179
196.32388306;4.05882359
196.32783508;2.92156863
196.33195496;2.19607854
196.33609009;2.50980401
196.33609009;3.37254906
196.34025574;4.56862736
196.34423828;4.86274529
196.34835815;4.09803915
196.34835815;3.13725495
196.35249329;2.19607854
196.35662842;2.82352948
196.36073303;3.92156863
196.36073303;4.66666651
196.36480713;4.41176462
196.36885071;3.50980401
196.36885071;2.33333325
196.37297058;2.15686274
196.37705994;3.00000000
196.38119507;3.98039222
196.38119507;4.45098019
196.38525391;3.31372547
196.38937378;2.15686274
196.39349365;1.23529410
196.39349365;1.56862748
196.39749146;2.31372547
196.40161133;3.23529410
196.40585327;3.09803915
196.40585327;1.90196073
196.40985107;0.94117647
196.41394043;0.35294119
196.41394043;1.11764705
196.41796875;2.31372547
196.42208862;3.00000000
196.42622375;2.47058821
196.42622375;1.35294116
196.43032837;0.47058824
196.43434143;0.43137255
196.43846130;1.45098042
196.43846130;2.33333325
196.44259644;2.66666675
196.44670105;2.21568632
196.45085144;1.17647064
196.45085144;0.50980395
196.45484924;0.96078432
196.45892334;2.01960778
196.45892334;2.94117641
196.46310425;2.98039222
196.46717834;1.90196073
196.47122192;1.01960790
196.47122192;0.47058824
196.47534180;0.86274511
196.47949219;1.98039210
196.48362732;2.94117641
196.48362732;2.58823538
196.48770142;1.76470590
196.49180603;0.68627453
196.49584961;1.66666663
196.49995422;2.60784316
196.50408936;3.25490189
196.50408936;2.56862736
196.50807190;1.70588231
196.51222229;0.96078432
196.51635742;1.43137252
196.51635742;2.31372547
196.52047729;3.15686274
196.52445984;3.43137264
196.52861023;2.60784316
196.52861023;1.60784316
196.53273010;1.11764705
196.53684998;1.78431368
196.54098511;3.66666675
196.54496765;3.13725495
196.54911804;2.43137264
196.54911804;1.33333337
196.55326843;1.19607842
196.55737305;2.00000000
196.56149292;3.13725495
196.56149292;3.60784316
196.56550598;2.92156863
196.56961060;1.96078432
196.57371521;1.33333337
196.57371521;1.64705884
196.57783508;2.88235283
196.58181763;3.68627453
196.58596802;2.66666675
196.59010315;1.62745094
196.59426880;0.98039216
196.59426880;1.80392158
196.59822083;2.98039222
196.60235596;3.80392146
196.60652161;3.39215684
196.60652161;2.45098042
196.61056519;1.43137252
196.61456299;1.41176474
196.61882019;2.35294127
196.61882019;3.39215684
196.62283325;3.86274505
196.62695313;3.00000000
196.63105774;1.27450979
196.63508606;1.64705884
196.63925171;2.52941179
196.63925171;3.64705873
196.64337158;3.60784316
196.64744568;2.47058821
196.65159607;1.54901958
196.65159607;1.11764705
196.65560913;1.84313726
196.65975952;2.92156863
196.66384888;3.80392146
196.66384888;3.39215684
196.66786194;2.41176462
196.67193604;1.62745094
196.67607117;2.68627453
196.68017578;3.56862736
196.68444824;3.96078420
196.68444824;3.03921580
196.68835449;1.96078432
196.69244385;1.17647064
196.69659424;1.78431368
196.69659424;2.68627453
196.70071411;3.56862736
196.70484924;3.33333325
196.70884705;2.41176462
196.70884705;1.33333337
196.71298218;1.01960790
196.71707153;2.05882359
196.72125244;3.66666675
196.72521973;3.33333325
196.72933960;2.50980401
196.72933960;1.45098042
196.73348999;1.35294116
196.73759460;2.11764717
196.74168396;3.19607854
196.74168396;3.62745094
196.74584961;3.23529410
196.74983215;2.41176462
196.75396729;1.68627453
196.75396729;2.19607854
196.75793457;3.09803915
196.76208496;4.07843161
196.76623535;3.11764717
196.77037048;2.25490189
196.77442932;1.94117641
196.77442932;2.86274505
196.77845764;3.72549009
196.78260803;4.33333349
196.78671265;3.82352948
196.78671265;2.76470590
196.79087830;1.82352936
196.79484558;2.07843137
196.79895020;3.09803915
196.79895020;4.07843161
196.80308533;4.29411745
196.80722046;3.29411769
196.80722046;2.25490189
196.81123352;1.49019611
196.81532288;1.96078432
196.81945801;3.05882359
196.81945801;3.98039222
196.82357788;3.80392146
196.82772827;2.78431368
196.83186340;1.64705884
196.83186340;0.98039216
196.83587646;2.03921580
196.83993530;3.15686274
196.84410095;3.56862736
196.84410095;3.00000000
196.84823608;2.17647052
196.85220337;1.31372547
196.85220337;1.45098042
196.85635376;2.27450991
196.86042786;3.39215684
196.86454773;3.92156863
196.86454773;3.01960778
196.86857605;1.86274505
196.87283325;1.00000000
196.87681580;1.41176474
196.87681580;2.09803915
196.88093567;3.07843137
196.88496399;2.80392146
196.88906860;2.13725495
196.88906860;2.11764717
196.89320374;2.43137264
196.89735413;4.11764717
196.89735413;4.98039198
196.90132141;4.98039198
196.90545654;4.98039198
196.90956116;4.88235283
196.90956116;4.31372547
196.91371155;4.25490189
196.91783142;4.72549009
196.92193604;4.90196085
196.92193604;4.60784292
196.92594910;3.33333325
196.93006897;2.00000000
196.93420410;1.09803927
196.93420410;1.47058821
196.93820190;2.39215684
196.94233704;3.13725495
196.94233704;2.84313726
196.94645691;2.17647052
196.95057678;1.29411769
196.95472717;0.86274511
196.95472717;1.76470590
196.95881653;2.72549009
196.96279907;3.29411769
196.96701050;2.72549009
196.96701050;1.52941179
196.97109985;0.50980395
196.97509766;1.03921568
196.97920227;2.11764717
196.97920227;3.17647052
196.98330688;3.27450991
196.98744202;2.19607854
196.98744202;1.43137252
196.99154663;0.64705884
196.99557495;1.47058821
196.99983215;2.66666675
196.99983215;3.88235283
197.00384521;3.82352948
197.00793457;2.84313726
197.01210022;1.60784316
197.01210022;1.21568632
197.01608276;1.94117641
197.02023315;2.68627453
197.02433777;2.96078420
197.02847290;2.39215684
197.03242493;1.60784316
197.03242493;1.80392158
197.03656006;2.80392146
197.04069519;3.80392146
197.04487610;4.21568632
197.04487610;3.17647052
197.04882813;2.01960778
197.05296326;1.27450979
197.05706787;1.78431368
197.05706787;3.05882359
197.06120300;4.41176462
197.06520081;4.21568632
197.06935120;2.49019599
197.07344055;2.15686274
197.07756042;3.13725495
197.07756042;4.09803915
197.08168030;4.47058821
197.08583069;3.74509811
197.08985901;2.94117641
197.08985901;2.00000000
197.09391785;2.45098042
197.09806824;3.37254906
197.10220337;4.70588255
197.10220337;4.94117641
197.10620117;4.11764717
197.11029053;3.13725495
197.11442566;3.21568632
197.11842346;3.96078420
197.12255859;4.82352924
197.12255859;4.56862736
197.12667847;3.76470590
197.13082886;2.60784316
197.13494873;2.15686274
197.13494873;2.82352948
197.13896179;3.68627453
197.14308167;4.27450991
197.14721680;3.52941179
197.14721680;2.54901958
197.15132141;1.43137252
197.15547180;1.49019611
197.15945435;3.01960778
197.16355896;3.11764717
197.16769409;2.15686274
197.16769409;1.41176474
197.17182922;0.56862748
197.17582703;1.00000000
197.17994690;1.96078432
197.17994690;2.86274505
197.18406677;2.88235283
197.18820190;1.78431368
197.19233704;0.74509805
197.19233704;0.35294119
197.19631958;1.23529410
197.20042419;2.31372547
197.20455933;2.19607854
197.20854187;1.23529410
197.21286011;0.52941179
197.21286011;0.88235295
197.21685791;1.62745094
197.22096252;2.68627453
197.22508240;2.84313726
197.22508240;2.01960778
197.22908020;1.00000000
197.23318481;0.29411766
197.23731995;0.90196079
197.23731995;1.90196073
197.24142456;2.98039222
197.24557495;2.74509811
197.24957275;1.05882359
197.25372314;0.98039216
197.25782776;1.76470590
197.25782776;2.60784316
197.26193237;3.25490189
197.26594543;2.62745094
197.27009583;1.66666663
197.27009583;0.76470590
197.27421570;1.13725495
197.27838135;2.09803915
197.28248596;3.19607854
197.28248596;3.52941179
197.28648376;2.64705873
197.29063416;1.64705884
197.29473877;1.62745094
197.29884338;2.68627453
197.30285645;3.60784316
197.30285645;3.35294127
197.30697632;2.21568632
197.31111145;1.68627453
197.31524658;1.47058821
197.31524658;2.21568632
197.31918335;3.15686274
197.32331848;3.78431368
197.32742310;2.96078420
197.32742310;1.96078432
197.33154297;1.11764705
197.33572388;1.62745094
197.33572388;2.39215684
197.33982849;3.49019599
197.34384155;3.64705873
197.34794617;2.68627453
197.34794617;1.58823526
197.35208130;1.03921568
197.35610962;1.88235295
197.36019897;2.76470590
197.36019897;3.62745094
197.36430359;3.27450991
197.36846924;2.39215684
197.37257385;1.45098042
197.37257385;1.43137252
197.37655640;2.31372547
197.38082886;3.33333325
197.38082886;3.90196085
197.38485718;3.31372547
197.38896179;2.17647052
197.39292908;1.17647064
197.39292908;1.41176474
197.39707947;2.43137264
197.40121460;3.68627453
197.40536499;3.76470590
197.40536499;2.70588231
197.40934753;1.72549021
197.41348267;1.11764705
197.41760254;1.94117641
197.41760254;2.94117641
197.42170715;3.62745094
197.42582703;3.37254906
197.42582703;2.54901958
197.42985535;1.68627453
197.43400574;1.54901958
197.43807983;2.47058821
197.43807983;3.21568632
197.44218445;3.72549009
197.44621277;2.96078420
197.45033264;2.00000000
197.45033264;1.45098042
197.45448303;1.74509799
197.45860291;2.80392146
197.46272278;3.54901958
197.46272278;3.54901958
197.46684265;2.88235283
197.47085571;1.90196073
197.47085571;1.11764705
197.47494507;1.70588231
197.47909546;2.68627453
197.48306274;3.56862736
197.48306274;3.21568632
197.48719788;2.19607854
197.49128723;1.29411769
197.49545288;1.45098042
197.49545288;2.31372547
197.49942017;3.09803915
197.50357056;3.76470590
197.50764465;3.07843137
197.50764465;2.03921580
197.51187134;1.25490201
197.51594543;1.60784316
197.51594543;2.47058821
197.51995850;3.62745094
197.52407837;3.78431368
197.52821350;2.80392146
197.52821350;2.03921580
197.53233337;1.49019611
197.53631592;2.25490189
197.54042053;3.09803915
197.54042053;4.07843161
197.54457092;3.50980401
197.54869080;2.60784316
197.55281067;1.50980389
197.55690002;2.49019599
197.56094360;3.50980401
197.56094360;4.15686274
197.56503296;3.54901958
197.56919861;2.52941179
197.57322693;1.62745094
197.57322693;1.88235295
197.57734680;2.82352948
197.58148193;3.72549009
197.58558655;3.62745094
197.58558655;2.78431368
197.58958435;1.98039210
197.59387207;1.29411769
197.59786987;2.96078420
197.60195923;3.72549009
197.60606384;3.54901958
197.60606384;2.74509811
197.61004639;1.76470590
197.61415100;1.52941179
197.61831665;2.03921580
197.61831665;3.54901958
197.62242126;3.86274505
197.62641907;3.07843137
197.63055420;2.00000000
197.63055420;1.15686274
197.63470459;1.45098042
197.63885498;2.66666675
197.64283752;3.66666675
197.64692688;2.54901958
197.65106201;1.13725495
197.65106201;0.62745100
197.65524292;1.84313726
197.65933228;3.54901958
197.66333008;4.98039198
197.66333008;4.98039198
197.66744995;4.98039198
197.67153931;4.86274529
197.67565918;4.98039198
197.67565918;4.98039198
197.67980957;4.98039198
197.68388367;4.84313726
197.68795776;1.78431368
197.69203186;0.78431374
197.69616699;1.33333337
197.69616699;2.07843137
197.70022583;3.23529410
197.70436096;3.33333325
197.70846558;2.31372547
197.70846558;1.45098042
197.71260071;0.96078432
197.71656799;1.41176474
197.72087097;2.39215684
197.72087097;3.29411769
197.72486877;3.01960778
197.72892761;1.96078432
197.73292542;1.17647064
197.73710632;2.09803915
197.74122620;3.15686274
197.74122620;3.39215684
197.74534607;2.56862736
197.74946594;1.82352936
197.75347900;0.96078432
197.75347900;1.21568632
197.75761414;2.39215684
197.76170349;3.62745094
197.76583862;3.56862736
197.76583862;2.60784316
197.76982117;1.56862748
197.77392578;1.07843137
197.77807617;2.92156863
197.78222656;3.74509811
197.78637695;3.35294127
197.78637695;2.54901958
197.79034424;1.70588231
197.79443359;1.50980389
197.79856873;2.68627453
197.79856873;3.45098042
197.80267334;3.84313726
197.80680847;2.90196085
197.81080627;2.11764717
197.81080627;1.68627453
197.81491089;2.15686274
197.81906128;3.29411769
197.82302856;4.35294104
197.82720947;3.29411769
197.83131409;2.25490189
197.83131409;1.54901958
197.83543396;2.49019599
197.83958435;3.72549009
197.84355164;4.52941179
197.84355164;4.05882359
197.84783936;3.25490189
197.85182190;2.39215684
197.85594177;2.25490189
197.85594177;3.03921580
197.85993958;4.17647076
197.86407471;4.70588255
197.86817932;3.17647052
197.87229919;2.47058821
197.87643433;3.03921580
197.87643433;3.74509811
197.88043213;4.86274529
197.88458252;4.74509811
197.88865662;3.76470590
197.88865662;2.86274505
197.89279175;2.35294127
197.89677429;3.21568632
197.90097046;4.21568632
197.90097046;4.94117641
197.90505981;4.21568632
197.90919495;2.84313726
197.90919495;1.54901958
197.91319275;1.50980389
197.91729736;2.19607854
197.92143250;3.00000000
197.92143250;3.56862736
197.92552185;2.66666675
197.92953491;1.39215684
197.93380737;0.66666669
197.93380737;0.98039216
197.93785095;1.76470590
197.94194031;2.58823538
197.94606018;2.60784316
197.94606018;1.80392158
197.95005798;0.78431374
197.95419312;0.19607843
197.95419312;0.90196079
197.95837402;1.82352936
197.96249390;2.64705873
197.96661377;2.39215684
197.96661377;1.54901958
197.97058105;0.45098040
197.97471619;0.37254903
197.97886658;1.52941179
197.97886658;2.52941179
197.98297119;2.86274505
197.98698425;2.03921580
197.99108887;1.25490201
197.99108887;0.47058824
197.99522400;0.62745100
197.99934387;1.68627453
197.99934387;2.78431368
198.00337219;2.80392146
198.00740051;1.76470590
198.01155090;0.84313726
198.01155090;0.49019608
198.01565552;1.39215684
198.01982117;2.41176462
198.02384949;3.25490189
198.02384949;2.92156863
198.02793884;1.76470590
198.03204346;0.66666669
198.03617859;0.62745100
198.03617859;1.56862748
198.04016113;2.64705873
198.04431152;3.01960778
198.04431152;2.21568632
198.04844666;1.50980389
198.05255127;0.94117647
198.05668640;1.52941179
198.05668640;2.56862736
198.06079102;3.64705873
198.06477356;3.49019599
198.06893921;2.47058821
198.06893921;1.35294116
198.07308960;0.78431374
198.07705688;1.90196073
198.08120728;3.94117641
198.08532715;3.50980401
198.08946228;2.70588231
198.08946228;1.60784316
198.09346008;1.62745094
198.09761047;2.41176462
198.10185242;3.52941179
198.10185242;3.76470590
198.10586548;2.70588231
198.10995483;1.60784316
198.11398315;0.78431374
198.11398315;1.31372547
198.11808777;2.37254906
198.12222290;3.47058821
198.12634277;2.33333325
198.13032532;1.33333337
198.13447571;1.13725495
198.13447571;1.96078432
198.13856506;2.80392146
198.14265442;3.50980401
198.14682007;2.92156863
198.14682007;1.86274505
198.15080261;0.96078432
198.15492249;1.23529410
198.15901184;2.31372547
198.15901184;3.43137264
198.16319275;3.94117641
198.16712952;2.84313726
198.17129517;1.15686274
198.17541504;1.49019611
198.17953491;2.49019599
198.17953491;3.56862736
198.18354797;3.54901958
198.18785095;2.58823538
198.19180298;1.72549021
198.19180298;1.41176474
198.19596863;2.29411769
198.20005798;3.37254906
198.20422363;4.07843161
198.20422363;3.41176462
198.20819092;2.15686274
198.21234131;0.98039216
198.21646118;2.27450991
198.22044373;3.25490189
198.22456360;3.66666675
198.22456360;2.78431368
198.22871399;2.25490189
198.23280334;1.78431368
198.23693848;2.09803915
198.23693848;2.86274505
198.24093628;3.74509811
198.24507141;3.43137264
198.24917603;2.47058821
198.24917603;1.41176474
198.25331116;1.07843137
198.25733948;1.96078432
198.26144409;3.72549009
198.26557922;3.17647052
198.26968384;2.19607854
198.26968384;1.25490201
198.27384949;1.31372547
198.27786255;2.33333325
198.28195190;3.66666675
198.28195190;4.07843161
198.28605652;3.23529410
198.29019165;2.21568632
198.29415894;1.50980389
198.29415894;2.21568632
198.29830933;3.21568632
198.30241394;4.11764717
198.30656433;3.03921580
198.31054688;2.05882359
198.31478882;1.78431368
198.31478882;2.68627453
198.31881714;3.62745094
198.32295227;4.33333349
198.32704163;3.84313726
198.32704163;2.45098042
198.33108521;1.54901958
198.33520508;1.90196073
198.33932495;2.49019599
198.33932495;3.41176462
198.34346008;3.80392146
198.34744263;2.80392146
198.35156250;0.96078432
198.35571289;1.76470590
198.35983276;2.72549009
198.35983276;3.60784316
198.36378479;3.39215684
198.36793518;2.50980401
198.37205505;1.27450979
198.37205505;1.29411769
198.37615967;2.19607854
198.38017273;3.07843137
198.38433838;3.86274505
198.38433838;3.23529410
198.38845825;2.07843137
198.39259338;1.03921568
198.39259338;1.33333337
198.39671326;2.64705873
198.40081787;4.39215708
198.40481567;4.98039198
198.40481567;4.98039198
198.40893555;4.84313726
198.41308594;4.94117641
198.41714478;4.98039198
198.41714478;4.98039198
198.42115784;4.98039198
198.42526245;4.47058821
198.42941284;3.01960778
198.42941284;1.45098042
198.43353271;0.84313726
198.43753052;1.74509799
198.43753052;2.76470590
198.44177246;3.39215684
198.44586182;2.84313726
198.44990540;1.84313726
198.44990540;1.03921568
198.45394897;1.00000000
198.45803833;2.09803915
198.46220398;3.21568632
198.46220398;3.39215684
198.46632385;2.78431368
198.47032166;1.60784316
198.47444153;0.80392158
198.47444153;1.49019611
198.47859192;2.50980401
198.48265076;3.39215684
198.48265076;3.21568632
198.48680115;2.23529410
198.49082947;1.43137252
198.49493408;1.17647064
198.49493408;1.84313726
198.49906921;3.01960778
198.50323486;3.78431368
198.50735474;3.23529410
198.50735474;2.31372547
198.51132202;1.33333337
198.51550293;1.54901958
198.51954651;2.29411769
198.51954651;3.37254906
198.52363586;3.64705873
198.52786255;2.90196085
198.52786255;1.88235295
198.53181458;1.37254906
198.53594971;2.09803915
198.54005432;3.21568632
198.54005432;4.01960802
198.54403687;3.70588231
198.54817200;2.62745094
198.55229187;1.64705884
198.55229187;1.49019611
198.55641174;2.45098042
198.56051636;3.62745094
198.56451416;4.23529434
198.56451416;3.39215684
198.56869507;2.72549009
198.57281494;1.90196073
198.57281494;1.78431368
198.57691956;3.01960778
198.58091736;4.27450991
198.58505249;4.56862736
198.58505249;3.49019599
198.58917236;2.54901958
198.59330750;1.98039210
198.59744263;2.74509811
198.59744263;3.56862736
198.60140991;4.70588255
198.60551453;4.70588255
198.60968018;2.64705873
198.61378479;2.37254906
198.61779785;3.29411769
198.61779785;4.15686274
198.62193298;4.86274529
198.62605286;4.19607830
198.63020325;3.45098042
198.63020325;2.72549009
198.63421631;3.13725495
198.63829041;3.92156863
198.64241028;4.82352924
198.64241028;4.80392170
198.64651489;3.54901958
198.65068054;2.43137264
198.65481567;2.13725495
198.65881348;2.86274505
198.66293335;3.66666675
198.66293335;3.19607854
198.66700745;2.15686274
198.67103577;1.17647064
198.67514038;0.80392158
198.67514038;1.43137252
198.67930603;2.25490189
198.68342590;3.17647052
198.68756104;2.56862736
198.68756104;1.49019611
198.69154358;0.60784316
198.69584656;0.62745100
198.69984436;2.64705873
198.70394897;3.19607854
198.70805359;2.43137264
198.70805359;1.21568632
198.71205139;0.39215687
198.71620178;1.17647064
198.72032166;2.07843137
198.72032166;2.82352948
198.72430420;2.62745094
198.72845459;1.82352936
198.73257446;0.72549021
198.73257446;0.09803922
198.73670959;1.21568632
198.74081421;2.45098042
198.74481201;2.45098042
198.74891663;1.33333337
198.75309753;0.49019608
198.75309753;0.84313726
198.75714111;1.84313726
198.76115417;3.01960778
198.76527405;3.43137264
198.76527405;2.43137264
198.76942444;1.62745094
198.77354431;1.07843137
198.77769470;1.72549021
198.77769470;2.66666675
198.78179932;3.47058821
198.78578186;3.09803915
198.78993225;1.19607842
198.79403687;1.31372547
198.79815674;2.21568632
198.79815674;3.35294127
198.80213928;3.90196085
198.80628967;3.33333325
198.81039429;2.19607854
198.81039429;1.27450979
198.81437683;1.49019611
198.81854248;2.25490189
198.82281494;3.23529410
198.82281494;3.45098042
198.82679749;2.54901958
198.83094788;1.64705884
198.83493042;1.96078432
198.83903503;2.96078420
198.84317017;3.66666675
198.84317017;3.50980401
198.84715271;2.68627453
198.85128784;1.58823526
198.85542297;1.19607842
198.85542297;1.86274505
198.85954285;2.78431368
198.86366272;3.35294127
198.86787415;2.58823538
198.86787415;1.78431368
198.87179565;1.29411769
198.87594604;1.80392158
198.88006592;3.66666675
198.88420105;3.64705873
198.88832092;2.45098042
198.88832092;1.45098042
198.89230347;1.15686274
198.89642334;2.19607854
198.90054321;3.27450991
198.90054321;4.07843161
198.90460205;3.50980401
198.90884399;2.45098042
198.91284180;1.41176474
198.91284180;1.41176474
198.91696167;2.07843137
198.92106628;3.11764717
198.92106628;3.78431368
198.92506409;3.25490189
198.92918396;2.31372547
198.93330383;1.62745094
198.93330383;1.90196073
198.93745422;2.68627453
198.94143677;3.66666675
198.94555664;3.72549009
198.94555664;2.78431368
198.94967651;1.70588231
198.95382690;1.05882359
198.95791626;1.86274505
198.95791626;3.01960778
198.96194458;3.74509811
198.96603394;3.35294127
198.96603394;2.45098042
198.97023010;1.25490201
198.97433472;1.15686274
198.97845459;2.01960778
198.97845459;2.88235283
198.98242188;3.29411769
198.98658752;2.39215684
198.99067688;1.60784316
198.99067688;1.00000000
198.99479675;1.68627453
198.99880981;2.45098042
199.00292969;3.25490189
199.00292969;3.45098042
199.00706482;2.52941179
199.01118469;1.50980389
199.01118469;1.03921568
199.01518250;1.84313726
199.01931763;2.76470590
199.02342224;3.88235283
199.02342224;3.84313726
199.02755737;2.94117641
199.03153992;2.03921580
199.03576660;1.80392158
199.03576660;2.56862736
199.03976440;3.60784316
199.04393005;4.01960802
199.04800415;3.21568632
199.04800415;2.13725495
199.05206299;1.56862748
199.05615234;2.01960778
199.05615234;3.29411769
199.06025696;4.29411745
199.06437683;4.15686274
199.06842041;3.35294127
199.06842041;2.35294127
199.07254028;1.78431368
199.07667542;2.45098042
199.08081055;3.37254906
199.08081055;4.15686274
199.08477783;3.74509811
199.08891296;2.76470590
199.09301758;1.76470590
199.09301758;1.56862748
199.09716797;2.49019599
199.10127258;3.41176462
199.10127258;3.98039222
199.10527039;3.11764717
199.10939026;2.19607854
199.11349487;1.41176474
199.11349487;1.90196073
199.11773682;2.70588231
199.12178040;3.37254906
199.12576294;3.45098042
199.12576294;2.58823538
199.12989807;1.54901958
199.13400269;1.27450979
199.13818359;3.07843137
199.14218140;3.82352948
199.14631653;3.43137264
199.14631653;2.25490189
199.15039063;0.98039216
199.15458679;0.88235295
199.15869141;2.43137264
199.15869141;4.41176462
199.16281128;4.98039198
199.16677856;4.98039198
199.17091370;4.98039198
199.17091370;4.98039198
199.17489624;4.98039198
199.17901611;4.98039198
199.18315125;4.66666651
199.18730164;3.13725495
199.19139099;1.94117641
199.19139099;1.29411769
199.19538879;1.84313726
199.19952393;2.80392146
199.20372009;3.72549009
199.20372009;3.37254906
199.20783997;2.29411769
199.21182251;1.35294116
199.21598816;1.23529410
199.21598816;2.17647052
199.22003174;3.13725495
199.22419739;3.43137264
199.22830200;1.76470590
199.23228455;0.80392158
199.23638916;1.25490201
199.23638916;2.13725495
199.24049377;3.07843137
199.24464417;2.92156863
199.24873352;2.07843137
199.24873352;0.90196079
199.25276184;0.66666669
199.25686646;1.43137252
199.26101685;2.39215684
199.26101685;3.33333325
199.26518250;2.78431368
199.26916504;1.70588231
199.27328491;1.00000000
199.27740479;2.01960778
199.28153992;3.03921580
199.28153992;3.31372547
199.28552246;2.60784316
199.28967285;1.98039210
199.29379272;1.33333337
199.29379272;1.68627453
199.29786682;2.68627453
199.30192566;3.90196085
199.30606079;3.96078420
199.30606079;2.82352948
199.31013489;2.05882359
199.31427002;1.60784316
199.31842041;3.37254906
199.32237244;4.17647076
199.32650757;3.76470590
199.32650757;2.96078420
199.33061218;1.84313726
199.33476257;1.96078432
199.33876038;2.96078420
199.33876038;4.13725471
199.34289551;4.47058821
199.34700012;3.64705873
199.35113525;2.64705873
199.35113525;1.70588231
199.35510254;2.19607854
199.35923767;3.43137264
199.36334229;4.49019623
199.36750793;3.39215684
199.37162781;2.62745094
199.37162781;2.23529410
199.37573242;3.15686274
199.37973022;3.98039222
199.38392639;4.64705896
199.38392639;4.31372547
199.38801575;3.31372547
199.39201355;2.35294127
199.39614868;2.62745094
199.39614868;3.49019599
199.40025330;4.52941179
199.40440369;4.92156839
199.40852356;2.68627453
199.41253662;1.88235295
199.41680908;2.17647052
199.41680908;2.92156863
199.42076111;3.84313726
199.42486572;3.43137264
199.42898560;2.33333325
199.42898560;1.17647064
199.43298340;0.66666669
199.43713379;1.64705884
199.44122314;2.64705873
199.44122314;2.88235283
199.44529724;2.01960778
199.44941711;1.27450979
199.44941711;0.56862748
199.45356750;0.45098040
199.45765686;1.58823526
199.46179199;2.37254906
199.46179199;2.92156863
199.46575928;1.82352936
199.46992493;1.31372547
199.47399902;0.62745100
199.47399902;1.05882359
199.47824097;1.90196073
199.48216248;2.90196085
199.48629761;2.66666675
199.48629761;1.60784316
199.49038696;0.74509805
199.49452209;0.58823532
199.49452209;1.37254906
199.49864197;2.27450991
199.50280762;3.07843137
199.50679016;2.54901958
199.50679016;1.62745094
199.51087952;0.60784316
199.51498413;0.78431374
199.51921082;1.78431368
199.51921082;2.56862736
199.52316284;3.03921580
199.52722168;2.31372547
199.53141785;1.43137252
199.53141785;0.68627453
199.53540039;1.19607842
199.53952026;2.39215684
199.53952026;3.31372547
199.54364014;3.17647052
199.54774475;2.43137264
199.55192566;1.35294116
199.55192566;0.88235295
199.55593872;1.66666663
199.55998230;2.66666675
199.56411743;3.47058821
199.56411743;3.17647052
199.56829834;2.17647052
199.57229614;1.25490201
199.57641602;1.25490201
199.57641602;2.07843137
199.58053589;3.35294127
199.58464050;3.94117641
199.58464050;2.96078420
199.58879089;1.88235295
199.59275818;1.09803927
199.59693909;1.72549021
199.59693909;2.58823538
199.60102844;3.78431368
199.60514832;3.66666675
199.60928345;2.68627453
199.60928345;1.70588231
199.61326599;1.31372547
199.61740112;2.01960778
199.62152100;2.86274505
199.62152100;3.72549009
199.62553406;3.37254906
199.62976074;2.56862736
199.62976074;1.43137252
199.63374329;1.45098042
199.63787842;2.35294127
199.64199829;3.33333325
199.64199829;3.70588231
199.64602661;3.05882359
199.65016174;1.86274505
199.65428162;1.05882359
199.65428162;1.70588231
199.65841675;2.86274505
199.66238403;3.78431368
199.66648865;2.52941179
199.67063904;1.52941179
199.67472839;1.11764705
199.67472839;1.76470590
199.67890930;3.15686274
199.68289185;4.07843161
199.68702698;3.54901958
199.68702698;2.50980401
199.69110107;1.47058821
199.69529724;1.54901958
199.69940186;2.49019599
199.69940186;3.39215684
199.70339966;4.03921556
199.70751953;3.45098042
199.71171570;1.52941179
199.71580505;2.35294127
199.71981812;3.09803915
199.71981812;3.84313726
199.72393799;3.72549009
199.72805786;2.78431368
199.73217773;1.78431368
199.73217773;1.29411769
199.73619080;2.13725495
199.74029541;3.17647052
199.74443054;3.96078420
199.74443054;3.31372547
199.74850464;1.84313726
199.75253296;1.05882359
199.75677490;1.96078432
199.76075745;2.96078420
199.76489258;3.23529410
199.76489258;2.31372547
199.76904297;1.56862748
199.77304077;0.88235295
199.77716064;1.66666663
199.77716064;2.64705873
199.78129578;3.50980401
199.78541565;3.50980401
199.78955078;2.62745094
199.78955078;1.58823526
199.79354858;1.50980389
199.79763794;2.27450991
199.80178833;4.21568632
199.80577087;3.58823538
199.80990601;2.60784316
199.80990601;1.62745094
199.81401062;1.70588231
199.81819153;2.72549009
199.82229614;3.58823538
199.82229614;4.07843161
199.82624817;3.00000000
199.83044434;1.90196073
199.83451843;1.07843137
199.83451843;1.50980389
199.83866882;2.72549009
199.84278870;3.66666675
199.84674072;2.72549009
199.85089111;1.54901958
199.85499573;1.25490201
199.85499573;2.09803915
199.85913086;3.00000000
199.86311340;3.49019599
199.86735535;2.50980401
199.86735535;1.88235295
199.87144470;1.11764705
199.87551880;1.21568632
199.87962341;2.01960778
199.87962341;2.88235283
199.88377380;3.50980401
199.88778687;3.00000000
199.89193726;2.66666675
199.89599609;4.23529434
199.90002441;4.98039198
199.90002441;4.98039198
199.90415955;4.98039198
199.90827942;4.98039198
199.91239929;4.01960802
199.91239929;3.17647052
199.91638184;3.19607854
199.92050171;3.39215684
199.92460632;3.78431368
199.92460632;2.90196085
199.92874146;1.78431368
199.93287659;0.92156863
199.93690491;2.35294127
199.94099426;3.45098042
199.94517517;3.58823538
199.94517517;2.49019599
199.94915771;1.49019611
199.95327759;0.88235295
199.95739746;1.49019611
199.95739746;2.39215684
199.96154785;3.41176462
199.96566772;3.17647052
199.96975708;2.17647052
199.96975708;1.33333337
199.97378540;1.11764705
199.97789001;1.84313726
199.97789001;2.98039222
199.98200989;3.58823538
199.98612976;2.80392146
199.99014282;1.92156863
199.99014282;1.15686274
199.99426270;1.41176474
199.99838257;2.17647052
200.00253296;3.49019599
200.00253296;3.82352948
200.00653076;2.80392146
200.01078796;1.78431368
200.01477051;1.15686274
200.01477051;1.94117641
200.01890564;3.03921580
200.02302551;3.96078420
200.02302551;3.64705873
200.02702332;2.58823538
200.03111267;1.50980389
200.03523254;1.50980389
200.03523254;2.52941179
200.03939819;3.64705873
200.04339600;4.21568632
200.04751587;3.62745094
200.04751587;2.70588231
200.05163574;1.88235295
200.05584717;1.88235295
200.05989075;2.68627453
200.05989075;3.62745094
200.06388855;4.17647076
200.06803894;3.43137264
200.06803894;2.70588231
200.07217407;1.86274505
200.07617188;2.49019599
200.08029175;3.47058821
200.08029175;4.45098019
200.08442688;4.17647076
200.08854675;3.49019599
200.09268188;2.41176462
200.09268188;2.41176462
200.09678650;3.25490189
200.10076904;4.33333349
200.10490417;4.96078444
200.10490417;4.09803915
200.10905457;3.17647052
200.11317444;2.60784316
200.11317444;2.96078420
200.11717224;3.74509811
200.12132263;4.96078444
200.12542725;4.92156839
200.12542725;4.13725471
200.12956238;3.13725495
200.13354492;2.15686274
200.13777161;2.52941179
200.13777161;3.60784316
200.14175415;4.25490189
200.14593506;3.66666675
200.15003967;2.58823538
200.15003967;1.58823526
200.15403748;1.25490201
200.15812683;1.90196073
200.15812683;2.74509811
200.16226196;3.41176462
200.16638184;2.62745094
200.17037964;1.49019611
200.17037964;0.31372550
200.17448425;0.39215687
200.17863464;1.41176474
200.18273926;2.60784316
200.18273926;2.62745094
200.18675232;1.70588231
200.19085693;0.68627453
200.19499207;0.56862748
200.19912720;1.50980389
200.20329285;2.47058821
200.20329285;2.25490189
200.20727539;1.45098042
200.21142578;0.41176471
200.21554565;0.41176471
200.21554565;1.29411769
200.21965027;2.39215684
200.22381592;3.11764717
200.22779846;2.31372547
200.22779846;1.25490201
200.23193359;0.47058824
200.23608398;0.96078432
200.24017334;3.05882359
200.24417114;3.15686274
200.24829102;2.29411769
200.24829102;1.41176474
200.25244141;0.78431374
200.25654602;1.54901958
200.26051331;2.58823538
200.26051331;3.49019599
200.26463318;3.11764717
200.26876831;2.37254906
200.27291870;1.50980389
200.27291870;1.35294116
200.27688599;2.33333325
200.28100586;3.23529410
200.28515625;2.92156863
200.28924561;1.80392158
200.29338074;0.90196079
200.29338074;1.17647064
200.29736328;2.33333325
200.30154419;3.45098042
200.30563354;3.66666675
200.30563354;2.54901958
200.30973816;1.52941179
200.31375122;0.98039216
200.31791687;1.54901958
200.31791687;2.41176462
200.32200623;3.31372547
200.32612610;3.01960778
200.33012390;1.09803927
200.33424377;0.98039216
200.33839417;1.90196073
200.33839417;2.90196085
200.34251404;3.64705873
200.34664917;2.72549009
200.35078430;1.76470590
200.35078430;0.94117647
200.35478210;1.49019611
200.35887146;2.54901958
200.36300659;3.56862736
200.36300659;3.64705873
200.36697388;2.76470590
200.37110901;1.60784316
200.37524414;1.41176474
200.37936401;2.47058821
200.38346863;3.60784316
200.38346863;3.09803915
200.38748169;2.27450991
200.39158630;1.37254906
200.39579773;1.31372547
200.39579773;2.33333325
200.39990234;3.05882359
200.40388489;3.76470590
200.40800476;2.94117641
200.40800476;2.11764717
200.41212463;1.03921568
200.41624451;1.62745094
200.42025757;3.64705873
200.42434692;3.80392146
200.42849731;2.64705873
200.42849731;1.41176474
200.43260193;0.90196079
200.43675232;1.76470590
200.44071960;2.70588231
200.44071960;3.43137264
200.44493103;3.05882359
200.44902039;2.15686274
200.45314026;1.45098042
200.45314026;1.01960790
200.45713806;1.78431368
200.46127319;2.82352948
200.46540833;2.88235283
200.46954346;2.00000000
200.47367859;1.19607842
200.47367859;1.47058821
200.47779846;2.43137264
200.48179626;3.31372547
200.48593140;3.45098042
200.48593140;2.72549009
200.48999023;1.94117641
200.49400330;1.41176474
200.49815369;2.07843137
200.49815369;3.23529410
200.50230408;4.00000000
200.50642395;3.78431368
200.50642395;3.01960778
200.51039124;2.01960778
200.51454163;1.82352936
200.51879883;2.47058821
200.51879883;3.58823538
200.52278137;4.05882359
200.52693176;3.15686274
200.53097534;2.05882359
200.53097534;1.33333337
200.53507996;1.58823526
200.53915405;2.60784316
200.54325867;3.54901958
200.54325867;3.74509811
200.54725647;2.58823538
200.55137634;1.43137252
200.55137634;0.50980395
200.55555725;1.21568632
200.55960083;2.50980401
200.56375122;3.39215684
200.56375122;3.03921580
200.56776428;2.15686274
200.57188416;1.23529410
200.57600403;1.27450979
200.57600403;2.15686274
200.58012390;3.01960778
200.58413696;3.68627453
200.58828735;2.98039222
200.58828735;1.66666663
200.59240723;0.84313726
200.59654236;1.49019611
200.59654236;3.43137264
200.60047913;4.98039198
200.60475159;4.98039198
200.60876465;4.98039198
200.60876465;4.96078444
200.61286926;4.72549009
200.61697388;4.98039198
200.62101746;4.98039198
200.62101746;4.92156839
200.62512207;3.76470590
200.62925720;2.29411769
200.63337708;1.15686274
200.63337708;0.96078432
200.63742065;2.01960778
200.64151001;3.17647052
200.64151001;3.43137264
200.64566040;2.68627453
200.64978027;1.92156863
200.65390015;1.07843137
200.65390015;1.56862748
200.65788269;2.47058821
200.66198730;3.33333325
200.66610718;3.27450991
200.66610718;2.47058821
200.67024231;1.50980389
200.67420959;1.07843137
200.67834473;2.84313726
200.68247986;3.84313726
200.68664551;3.54901958
200.68664551;2.23529410
200.69073486;1.07843137
200.69477844;1.19607842
200.69889832;2.03921580
200.69889832;3.07843137
200.70303345;3.82352948
200.70713806;3.01960778
200.71110535;1.98039210
200.71110535;1.43137252
200.71527100;1.76470590
200.71939087;2.62745094
200.72352600;3.64705873
200.72747803;2.52941179
200.73173523;1.64705884
200.73173523;1.33333337
200.73571777;2.13725495
200.73985291;3.25490189
200.74397278;4.07843161
200.74397278;3.52941179
200.74797058;2.33333325
200.75210571;1.70588231
200.75630188;1.76470590
200.75630188;2.90196085
200.76029968;3.84313726
200.76440430;4.25490189
200.76852417;2.39215684
200.77265930;1.39215684
200.77677917;1.96078432
200.77677917;3.05882359
200.78077698;4.29411745
200.78488159;4.39215708
200.78900146;3.41176462
200.78900146;2.52941179
200.79321289;1.92156863
200.79733276;2.52941179
200.80126953;3.96078420
200.80126953;4.82352924
200.80537415;4.54901981
200.80950928;3.80392146
200.81362915;2.82352948
200.81782532;3.84313726
200.82176208;4.72549009
200.82176208;4.98039198
200.82588196;4.29411745
200.83000183;3.25490189
200.83415222;2.50980401
200.83415222;2.96078420
200.83811951;3.72549009
200.84225464;4.19607830
200.84640503;3.82352948
200.84640503;2.80392146
200.85046387;1.88235295
200.85449219;1.41176474
200.85874939;3.05882359
200.86273193;3.80392146
200.86688232;3.05882359
200.86688232;1.76470590
200.87086487;0.62745100
200.87496948;0.43137255
200.87908936;1.23529410
200.87908936;2.29411769
200.88327026;2.58823538
200.88725281;1.68627453
200.89137268;0.86274511
200.89137268;0.15686275
200.89549255;0.66666669
200.89962769;1.68627453
200.90376282;2.31372547
200.90774536;1.45098042
200.91186523;0.74509805
200.91186523;0.43137255
200.91603088;1.25490201
200.92015076;2.35294127
200.92427063;2.96078420
200.92427063;2.15686274
200.92828369;1.13725495
200.93243408;0.23529412
200.93653870;0.60784316
200.93653870;1.50980389
200.94067383;2.62745094
200.94477844;3.11764717
200.94873047;1.33333337
200.95288086;0.56862748
200.95703125;0.96078432
200.95703125;1.86274505
200.96101379;2.74509811
200.96513367;2.72549009
200.96926880;1.74509799
200.96926880;0.72549021
200.97340393;0.33333334
200.97747803;1.45098042
200.98147583;2.74509811
200.98147583;3.66666675
200.98559570;3.27450991
200.98976135;2.27450991
200.99386597;1.07843137
200.99786377;1.86274505
201.00202942;2.78431368
201.00202942;3.27450991
201.00610352;2.39215684
201.01026917;1.70588231
201.01443481;1.15686274
201.01443481;1.54901958
201.01838684;2.23529410
201.02250671;3.25490189
201.02665710;3.15686274
201.02665710;2.13725495
201.03071594;1.15686274
201.03472900;0.90196079
201.03472900;1.78431368
201.03890991;2.70588231
201.04301453;3.58823538
201.04716492;2.96078420
201.04716492;1.98039210
201.05114746;0.98039216
201.05526733;1.15686274
201.05940247;2.01960778
201.05940247;2.98039222
201.06353760;3.64705873
201.06762695;2.72549009
201.07173157;1.82352936
201.07173157;1.07843137
201.07572937;1.54901958
201.07991028;2.50980401
201.07991028;3.31372547
201.08396912;3.11764717
201.08801270;2.25490189
201.09211731;1.29411769
201.09211731;0.92156863
201.09628296;1.90196073
201.10034180;2.92156863
201.10450745;3.66666675
201.10450745;3.09803915
201.10847473;2.11764717
201.11264038;1.23529410
201.11674500;1.37254906
201.11674500;2.25490189
201.12086487;3.29411769
201.12483215;3.82352948
201.12483215;3.00000000
201.12907410;1.88235295
201.13313293;1.21568632
201.13728333;1.78431368
201.13728333;2.78431368
201.14125061;3.54901958
201.14537048;3.37254906
201.14952087;2.54901958
201.14952087;1.58823526
201.15364075;1.47058821
201.15779114;2.17647052
201.16177368;2.98039222
201.16177368;3.56862736
201.16590881;2.98039222
201.17001343;2.03921580
201.17001343;1.25490201
201.17414856;1.66666663
201.17813110;2.60784316
201.18228149;3.62745094
201.18228149;3.94117641
201.18641663;2.96078420
201.19049072;1.94117641
201.19459534;1.27450979
201.19459534;1.78431368
201.19873047;2.66666675
201.20274353;3.64705873
201.20689392;3.37254906
201.20689392;2.50980401
201.21101379;1.17647064
201.21511841;0.98039216
201.21511841;1.88235295
201.21913147;2.76470590
201.22325134;3.54901958
201.22734070;3.07843137
201.22734070;2.07843137
201.23133850;1.09803927
201.23547363;1.23529410
201.23974609;2.17647052
201.23974609;3.23529410
201.24371338;3.62745094
201.24784851;2.60784316
201.25186157;0.82352942
201.25605774;1.45098042
201.26013184;2.29411769
201.26013184;3.41176462
201.26429749;3.66666675
201.26824951;3.15686274
201.27238464;2.90196085
201.27238464;3.49019599
201.27651978;4.98039198
201.28063965;4.98039198
201.28475952;4.98039198
201.28475952;4.98039198
201.28874207;4.80392170
201.29286194;3.23529410
201.29696655;2.43137264
201.30110168;2.82352948
201.30509949;3.01960778
201.30509949;2.64705873
201.30920410;1.86274505
201.31333923;0.90196079
201.31752014;1.35294116
201.31752014;2.37254906
201.32151794;3.35294127
201.32577515;3.19607854
201.32978821;2.17647052
201.32978821;1.05882359
201.33384705;0.76470590
201.33802795;1.78431368
201.34201050;3.43137264
201.34611511;2.58823538
201.35025024;1.47058821
201.35025024;0.90196079
201.35437012;1.09803927
201.35833740;2.19607854
201.36248779;3.35294127
201.36248779;3.62745094
201.36660767;2.96078420
201.37075806;1.98039210
201.37484741;1.25490201
201.37484741;1.72549021
201.37886047;2.76470590
201.38301086;3.72549009
201.38711548;2.52941179
201.39126587;1.62745094
201.39524841;1.17647064
201.39524841;1.94117641
201.39938354;3.17647052
201.40351868;3.92156863
201.40763855;3.47058821
201.40763855;2.45098042
201.41175842;1.49019611
201.41572571;1.64705884
201.41984558;2.74509811
201.41984558;3.90196085
201.42396545;4.31372547
201.42810059;3.31372547
201.43209839;1.54901958
201.43623352;2.31372547
201.44032288;3.17647052
201.44032288;4.17647076
201.44451904;4.25490189
201.44848633;3.39215684
201.45274353;2.45098042
201.45274353;2.05882359
201.45675659;2.96078420
201.46087646;3.96078420
201.46502686;4.68627453
201.46502686;4.23529434
201.46899414;3.17647052
201.47309875;2.23529410
201.47721863;3.68627453
201.48136902;4.86274529
201.48535156;4.98039198
201.48535156;4.27450991
201.48948669;3.33333325
201.49360657;2.74509811
201.49772644;3.35294127
201.49772644;4.09803915
201.50173950;4.98039198
201.50590515;4.66666651
201.51000977;3.80392146
201.51000977;2.84313726
201.51412964;2.45098042
201.51824951;2.88235283
201.51824951;3.72549009
201.52224731;3.96078420
201.52638245;3.31372547
201.53051758;2.43137264
201.53051758;1.43137252
201.53462219;1.58823526
201.53872681;2.45098042
201.54270935;3.35294127
201.54270935;3.37254906
201.54682922;2.17647052
201.55102539;1.13725495
201.55511475;0.58823532
201.55511475;1.03921568
201.55909729;1.96078432
201.56321716;2.94117641
201.56321716;2.68627453
201.56736755;1.68627453
201.57151794;0.88235295
201.57563782;0.82352942
201.57563782;1.72549021
201.57978821;2.62745094
201.58369446;3.33333325
201.58789063;2.66666675
201.58789063;1.92156863
201.59190369;0.74509805
201.59605408;0.88235295
201.60011292;1.86274505
201.60011292;2.92156863
201.60423279;3.09803915
201.60832214;2.07843137
201.60832214;1.33333337
201.61236572;0.60784316
201.61647034;1.13725495
201.62060547;2.27450991
201.62060547;3.27450991
201.62471008;2.94117641
201.62876892;1.94117641
201.63287354;1.11764705
201.63287354;0.94117647
201.63703918;2.01960778
201.64111328;3.00000000
201.64521790;3.68627453
201.64521790;2.66666675
201.64924622;1.86274505
201.65336609;1.15686274
201.65336609;1.54901958
201.65748596;2.62745094
201.66162109;3.62745094
201.66571045;3.70588231
201.66571045;2.82352948
201.66970825;1.88235295
201.67382813;1.31372547
201.67797852;2.00000000
201.67797852;2.96078420
201.68194580;3.84313726
201.68606567;3.64705873
201.69020081;2.68627453
201.69020081;1.56862748
201.69438171;1.37254906
201.69850159;2.29411769
201.69850159;3.25490189
201.70246887;3.94117641
201.70672607;3.03921580
201.71072388;2.11764717
201.71072388;1.39215684
201.71485901;1.66666663
201.71884155;2.41176462
201.72294617;3.47058821
201.72294617;3.49019599
201.72714233;2.56862736
201.73126221;1.56862748
201.73536682;1.80392158
201.73936462;2.76470590
201.74349976;3.41176462
201.74349976;3.21568632
201.74763489;2.29411769
201.75177002;1.43137252
201.75576782;1.31372547
201.75576782;2.23529410
201.75982666;3.11764717
201.76396179;3.70588231
201.76811218;3.25490189
201.76811218;2.37254906
201.77214050;1.27450979
201.77622986;1.60784316
201.78038025;3.37254906
201.78448486;3.66666675
201.78863525;2.82352948
201.78863525;1.88235295
201.79273987;1.37254906
201.79670715;2.19607854
201.80093384;3.25490189
201.80093384;4.13725471
201.80505371;3.92156863
201.80894470;2.72549009
201.81307983;1.54901958
201.81307983;1.45098042
201.81723022;2.37254906
201.82139587;3.33333325
201.82550049;3.25490189
201.82946777;2.31372547
201.83369446;1.49019611
201.83369446;1.72549021
201.83775330;2.64705873
201.84187317;3.52941179
201.84587097;3.43137264
201.84587097;2.54901958
201.85002136;1.47058821
201.85412598;0.78431374
201.85826111;1.74509799
201.85826111;2.78431368
201.86224365;3.56862736
201.86636353;2.94117641
201.87049866;0.94117647
201.87464905;1.07843137
201.87870789;2.09803915
201.87870789;3.33333325
201.88269043;3.88235283
201.88687134;3.09803915
201.89102173;2.13725495
201.89102173;1.29411769
201.89511108;1.66666663
201.89909363;2.41176462
201.90324402;3.47058821
201.90324402;3.54901958
201.90737915;2.68627453
201.91151428;1.62745094
201.91560364;2.13725495
201.91973877;4.03921556
201.92382813;4.98039198
201.92382813;4.98039198
201.92782593;4.98039198
201.93194580;4.80392170
201.93614197;4.98039198
201.93614197;4.98039198
201.94012451;4.98039198
201.94425964;4.90196085
201.94837952;3.52941179
201.94837952;2.01960778
201.95237732;0.84313726
201.95648193;1.21568632
201.96063232;3.07843137
201.96475220;2.88235283
201.96888733;2.15686274
201.96888733;1.09803927
201.97286987;0.39215687
201.97700500;1.15686274
201.98114014;2.50980401
201.98114014;3.33333325
201.98526001;3.00000000
201.98925781;2.19607854
201.99337769;1.37254906
201.99337769;1.21568632
201.99746704;1.98039210
202.00160217;2.72549009
202.00572205;2.45098042
202.00971985;1.62745094
202.01387024;0.92156863
202.01387024;1.43137252
202.01799011;2.43137264
202.02209473;3.50980401
202.02622986;3.47058821
202.02622986;2.50980401
202.03019714;1.52941179
202.03433228;0.96078432
202.03843689;1.84313726
202.03843689;2.92156863
202.04246521;3.80392146
202.04670715;3.37254906
202.04670715;2.29411769
202.05075073;1.23529410
202.05485535;1.23529410
202.05897522;2.15686274
202.05897522;3.25490189
202.06295776;3.88235283
202.06709290;3.19607854
202.07124329;2.09803915
202.07124329;1.45098042
202.07540894;1.90196073
202.07937622;2.84313726
202.08349609;3.98039222
202.08349609;4.03921556
202.08761597;3.09803915
202.09173584;2.29411769
202.09173584;2.01960778
202.09585571;2.82352948
202.09982300;3.66666675
202.10395813;4.43137264
202.10395813;3.90196085
202.10806274;2.92156863
202.11221313;2.25490189
202.11631775;2.17647052
202.11631775;3.21568632
202.12036133;4.39215708
202.12445068;4.96078444
202.12863159;4.31372547
202.12863159;3.15686274
202.13273621;2.41176462
202.13673401;2.76470590
202.13673401;3.74509811
202.14085388;4.54901981
202.14500427;4.68627453
202.14910889;3.74509811
202.14910889;2.62745094
202.15307617;2.21568632
202.15722656;2.96078420
202.16134644;3.94117641
202.16134644;4.66666651
202.16546631;3.80392146
202.16946411;2.54901958
202.17373657;1.49019611
202.17373657;1.49019611
202.17770386;2.35294127
202.18182373;3.17647052
202.18182373;3.90196085
202.18585205;3.00000000
202.18998718;1.94117641
202.19407654;1.09803927
202.19407654;1.13725495
202.19821167;2.00000000
202.20236206;3.00000000
202.20649719;2.96078420
202.20649719;1.92156863
202.21049500;0.94117647
202.21463013;0.31372550
202.21871948;1.15686274
202.21871948;2.19607854
202.22273254;2.96078420
202.22683716;2.54901958
202.22683716;1.47058821
202.23095703;0.56862748
202.23509216;0.60784316
202.23922729;1.56862748
202.23922729;2.58823538
202.24322510;2.96078420
202.24732971;2.00000000
202.25148010;1.13725495
202.25148010;0.17647059
202.25563049;0.33333334
202.25975037;1.41176474
202.26371765;2.68627453
202.26786804;1.56862748
202.27200317;0.74509805
202.27200317;0.47058824
202.27600098;1.58823526
202.28010559;2.80392146
202.28422546;3.62745094
202.28422546;3.01960778
202.28833008;1.82352936
202.29246521;0.82352942
202.29658508;0.88235295
202.29658508;2.17647052
202.30075073;3.27450991
202.30471802;3.86274505
202.30882263;2.01960778
202.31282043;1.21568632
202.31698608;1.41176474
202.31698608;2.33333325
202.32110596;3.33333325
202.32521057;3.45098042
202.32933044;2.58823538
202.32933044;1.52941179
202.33338928;0.98039216
202.33749390;1.88235295
202.34162903;2.94117641
202.34162903;3.56862736
202.34574890;3.21568632
202.34970093;2.41176462
202.35383606;1.43137252
202.35795593;2.17647052
202.36210632;3.25490189
202.36210632;3.58823538
202.36622620;2.58823538
202.37022400;1.66666663
202.37432861;0.94117647
202.37432861;1.43137252
202.37850952;2.29411769
202.38262939;3.33333325
202.38674927;3.35294127
202.38674927;2.49019599
202.39073181;1.49019611
202.39486694;1.11764705
202.39900208;2.64705873
202.40298462;3.52941179
202.40708923;2.92156863
202.40708923;1.80392158
202.41119385;1.03921568
202.41534424;1.33333337
202.41949463;2.05882359
202.41949463;3.11764717
202.42349243;3.66666675
202.42761230;2.72549009
202.43176270;1.84313726
202.43176270;1.21568632
202.43588257;1.90196073
202.44000244;3.00000000
202.44398499;3.92156863
202.44807434;3.01960778
202.45222473;2.01960778
202.45222473;1.50980389
202.45640564;2.39215684
202.46035767;3.35294127
202.46449280;4.07843161
202.46449280;3.68627453
202.46861267;3.13725495
202.47273254;2.13725495
202.47685242;2.43137264
202.47685242;2.92156863
202.48083496;3.82352948
202.48495483;4.15686274
202.48908997;2.15686274
202.49307251;1.07843137
202.49720764;1.39215684
202.49720764;2.64705873
202.50132751;3.62745094
202.50549316;3.45098042
202.50959778;2.37254906
202.50959778;1.45098042
202.51373291;0.96078432
202.51771545;1.96078432
202.52183533;2.92156863
202.52183533;3.80392146
202.52597046;3.05882359
202.53012085;1.90196073
202.53407288;1.13725495
202.53820801;2.19607854
202.54234314;3.39215684
202.54234314;3.74509811
202.54644775;2.98039222
202.55044556;2.15686274
202.55470276;1.31372547
202.55470276;1.64705884
202.55873108;2.60784316
202.56282043;3.70588231
202.56700134;4.27450991
202.56700134;4.29411745
202.57095337;4.21568632
202.57507324;4.54901981
202.57507324;4.98039198
202.57917786;4.98039198
202.58322144;4.98039198
202.58735657;4.86274529
202.58735657;3.68627453
202.59147644;1.96078432
202.59561157;1.60784316
202.59970093;2.13725495
202.59970093;2.80392146
202.60371399;3.19607854
202.60781860;2.43137264
202.61196899;1.54901958
202.61196899;0.90196079
202.61608887;1.52941179
202.62023926;2.66666675
202.62023926;3.60784316
202.62417603;3.70588231
202.62835693;2.35294127
202.63249207;1.11764705
202.63249207;0.70588237
202.63648987;1.70588231
202.64074707;2.74509811
202.64471436;3.54901958
202.64471436;3.09803915
202.64884949;2.03921580
202.65296936;1.15686274
202.65708923;1.33333337
202.65708923;2.19607854
202.66108704;3.41176462
202.66525269;3.70588231
202.66525269;2.96078420
202.66935730;1.98039210
202.67337036;1.23529410
202.67749023;1.80392158
202.67749023;2.90196085
202.68174744;3.88235283
202.68576050;3.58823538
202.68983459;2.72549009
202.68983459;1.78431368
202.69381714;1.39215684
202.69795227;2.15686274
202.70210266;3.23529410
202.70210266;3.92156863
202.70619202;3.29411769
202.71034241;2.23529410
202.71034241;1.29411769
202.71434021;1.49019611
202.71847534;2.64705873
202.72259521;3.74509811
202.72259521;4.13725471
202.72668457;3.33333325
202.73068237;2.17647052
202.73484802;1.47058821
202.73484802;1.94117641
202.73896790;3.33333325
202.74304199;4.29411745
202.74705505;4.05882359
202.74705505;3.11764717
202.75119019;2.52941179
202.75534058;2.00000000
202.75534058;3.00000000
202.75947571;4.23529434
202.76345825;4.98039198
202.76770020;4.43137264
202.76770020;3.43137264
202.77172852;2.43137264
202.77586365;2.62745094
202.78001404;3.60784316
202.78001404;4.60784292
202.78396606;4.92156839
202.78816223;4.01960802
202.79226685;2.31372547
202.79634094;3.09803915
202.80046082;3.94117641
202.80046082;4.62745094
202.80445862;4.29411745
202.80853271;3.35294127
202.81268311;2.19607854
202.81268311;1.56862748
202.81684875;2.35294127
202.82084656;3.27450991
202.82499695;3.86274505
202.82499695;3.11764717
202.82913208;2.01960778
202.83322144;1.03921568
202.83721924;2.13725495
202.84133911;2.60784316
202.84550476;2.80392146
202.84550476;1.96078432
202.84957886;1.00000000
202.85369873;0.37254903
202.85768127;0.88235295
202.85768127;1.84313726
202.86181641;2.88235283
202.86592102;2.74509811
202.87010193;1.80392158
202.87010193;0.62745100
202.87403870;0.15686275
202.87821960;1.07843137
202.88232422;2.88235283
202.88648987;2.33333325
202.89059448;1.37254906
202.89059448;0.47058824
202.89476013;0.68627453
202.89875793;1.62745094
202.90283203;2.62745094
202.90283203;2.70588231
202.90698242;1.80392158
202.91096497;0.82352942
202.91511536;0.33333334
202.91511536;1.19607842
202.91918945;2.33333325
202.92332458;3.33333325
202.92745972;2.33333325
202.93144226;1.43137252
202.93560791;0.88235295
202.93560791;1.58823526
202.93974304;2.62745094
202.94371033;3.47058821
202.94783020;2.84313726
202.94783020;1.84313726
202.95198059;0.94117647
202.95610046;1.11764705
202.96017456;1.90196073
202.96017456;3.19607854
202.96421814;3.31372547
202.96833801;2.21568632
202.97244263;0.60784316
202.97657776;1.35294116
202.98068237;2.47058821
202.98068237;3.50980401
202.98472595;3.27450991
202.98883057;2.49019599
202.99295044;1.33333337
202.99295044;0.68627453
202.99705505;1.64705884
203.00114441;2.70588231
203.00520325;3.62745094
203.00520325;3.03921580
203.00935364;2.09803915
203.01347351;1.25490201
203.01748657;2.47058821
203.02172852;3.54901958
203.02572632;3.84313726
203.02572632;2.78431368
203.02984619;1.92156863
203.03378296;1.17647064
203.03796387;1.60784316
203.03796387;2.50980401
203.04205322;3.60784316
203.04620361;3.25490189
203.05041504;2.31372547
203.05041504;1.60784316
203.05438232;1.54901958
203.05845642;2.47058821
203.06257629;3.94117641
203.06674194;3.27450991
203.07086182;2.29411769
203.07086182;1.56862748
203.07482910;1.84313726
203.07896423;2.58823538
203.08309937;3.56862736
203.08309937;4.03921556
203.08720398;3.00000000
203.09120178;2.00000000
203.09532166;1.66666663
203.09532166;2.47058821
203.09942627;3.43137264
203.10354614;4.37254906
203.10354614;4.17647076
203.10766602;2.92156863
203.11169434;1.86274505
203.11581421;1.86274505
203.11581421;2.68627453
203.11994934;3.58823538
203.12403870;4.17647076
203.12809753;3.76470590
203.12809753;2.74509811
203.13218689;1.66666663
203.13629150;1.68627453
203.14044189;2.86274505
203.14044189;3.62745094
203.14445496;3.68627453
203.14874268;2.60784316
203.14874268;1.29411769
203.15270996;0.50980395
203.15686035;1.31372547
203.16099548;2.41176462
203.16099548;3.29411769
203.16496277;3.39215684
203.16906738;2.21568632
203.17321777;1.27450979
203.17321777;0.88235295
203.17732239;1.80392158
203.18130493;2.68627453
203.18547058;3.52941179
203.18547058;3.07843137
203.18959045;2.13725495
203.19371033;1.31372547
203.19371033;1.60784316
203.19769287;2.60784316
203.20182800;3.60784316
203.20594788;3.90196085
203.20594788;2.88235283
203.21014404;1.64705884
203.21415710;0.98039216
203.21815491;2.09803915
203.21815491;3.56862736
203.22229004;4.98039198
203.22642517;4.98039198
203.23056030;4.98039198
203.23056030;4.86274529
203.23469543;4.98039198
203.23869324;4.98039198
203.23869324;4.98039198
203.24282837;4.98039198
203.24694824;3.70588231
203.25109863;2.25490189
203.25109863;1.11764705
203.25506592;1.39215684
203.25915527;2.35294127
203.26329041;3.43137264
203.26329041;3.50980401
203.26747131;2.23529410
203.27142334;1.19607842
203.27569580;0.45098040
203.27569580;1.52941179
203.27970886;2.45098042
203.28376770;3.33333325
203.28376770;3.11764717
203.28781128;2.05882359
203.29191589;1.00000000
203.29603577;1.00000000
203.29603577;1.76470590
203.30026245;2.82352948
203.30433655;3.31372547
203.30830383;2.39215684
203.30830383;1.27450979
203.31242371;0.58823532
203.31660461;1.07843137
203.32072449;3.23529410
203.32470703;3.58823538
203.32882690;2.70588231
203.32882690;1.52941179
203.33297729;0.70588237
203.33711243;1.72549021
203.34121704;2.62745094
203.34121704;3.90196085
203.34519958;3.45098042
203.34934998;2.64705873
203.35348511;1.66666663
203.35348511;1.56862748
203.35760498;2.31372547
203.36172485;3.25490189
203.36572266;3.21568632
203.36985779;2.27450991
203.37397766;1.74509799
203.37397766;2.05882359
203.37794495;3.01960778
203.38206482;4.00000000
203.38618469;4.05882359
203.38618469;3.17647052
203.39031982;2.03921580
203.39447021;1.37254906
203.39846802;2.50980401
203.39846802;3.49019599
203.40258789;4.43137264
203.40672302;4.07843161
203.41081238;2.29411769
203.41481018;2.17647052
203.41893005;3.23529410
203.41893005;4.19607830
203.42309570;4.76470566
203.42720032;3.96078420
203.43130493;3.00000000
203.43130493;2.13725495
203.43533325;2.52941179
203.43945313;3.62745094
203.44361877;4.62745094
203.44361877;4.66666651
203.44773865;3.70588231
203.45172119;2.70588231
203.45585632;2.70588231
203.45997620;3.47058821
203.46411133;4.01960802
203.46411133;3.80392146
203.46810913;2.76470590
203.47222900;1.64705884
203.47637939;1.54901958
203.47637939;2.21568632
203.48045349;3.23529410
203.48457336;3.56862736
203.48872375;2.72549009
203.48872375;1.74509799
203.49272156;0.84313726
203.49687195;1.21568632
203.50099182;2.94117641
203.50497437;2.98039222
203.50907898;2.03921580
203.50907898;1.05882359
203.51321411;0.66666669
203.51734924;0.94117647
203.52149963;1.98039210
203.52149963;3.11764717
203.52546692;2.82352948
203.52964783;1.80392158
203.53369141;0.74509805
203.53369141;0.58823532
203.53790283;1.58823526
203.54182434;2.64705873
203.54592896;2.00000000
203.55010986;1.01960790
203.55427551;0.35294119
203.55427551;0.64705884
203.55821228;1.86274505
203.56234741;3.05882359
203.56646729;3.09803915
203.56646729;2.19607854
203.57060242;1.19607842
203.57470703;0.70588237
203.57870483;1.45098042
203.57870483;2.35294127
203.58285522;3.13725495
203.58700562;2.58823538
203.59111023;0.92156863
203.59507751;1.05882359
203.59918213;2.17647052
203.59918213;3.35294127
203.60331726;3.88235283
203.60742188;2.86274505
203.61157227;1.72549021
203.61157227;0.68627453
203.61567688;1.03921568
203.61970520;2.05882359
203.62379456;3.37254906
203.62379456;3.54901958
203.62797546;2.62745094
203.63212585;1.74509799
203.63212585;1.31372547
203.63610840;2.25490189
203.64019775;3.33333325
203.64434814;3.96078420
203.64434814;3.47058821
203.64833069;2.25490189
203.65245056;1.23529410
203.65672302;1.35294116
203.65672302;2.31372547
203.66075134;3.31372547
203.66482544;3.84313726
203.66879272;3.05882359
203.66879272;2.13725495
203.67295837;1.29411769
203.67707825;1.74509799
203.67707825;2.78431368
203.68115234;3.80392146
203.68519592;3.56862736
203.68933105;2.54901958
203.68933105;1.62745094
203.69346619;1.15686274
203.69760132;1.94117641
203.70170593;2.92156863
203.70170593;3.70588231
203.70571899;3.23529410
203.70985413;2.23529410
203.71397400;1.09803927
203.71397400;1.03921568
203.71810913;2.03921580
203.72206116;3.05882359
203.72206116;3.31372547
203.72616577;2.33333325
203.73030090;2.17647052
203.73445129;1.41176474
203.73445129;1.78431368
203.73843384;2.78431368
203.74266052;3.84313726
203.74664307;3.74509811
203.74664307;2.90196085
203.75080872;1.92156863
203.75495911;1.35294116
203.75892639;2.09803915
203.75892639;3.47058821
203.76307678;4.27450991
203.76718140;3.82352948
203.76718140;2.78431368
203.77133179;1.82352936
203.77531433;1.96078432
203.77946472;2.86274505
203.77946472;3.74509811
203.78353882;4.31372547
203.78768921;3.54901958
203.79177856;2.23529410
203.79177856;1.43137252
203.79580688;1.86274505
203.79992676;2.94117641
203.80406189;3.76470590
203.80406189;3.41176462
203.80816650;2.33333325
203.81216431;1.39215684
203.81216431;1.03921568
203.81629944;1.72549021
203.82048035;2.43137264
203.82456970;3.54901958
203.82456970;3.23529410
203.82868958;2.21568632
203.83265686;1.25490201
203.83682251;1.33333337
203.83682251;2.45098042
203.84095764;3.47058821
203.84512329;3.82352948
203.84910583;1.98039210
203.85319519;1.19607842
203.85729980;1.68627453
203.85729980;2.45098042
203.86143494;3.80392146
203.86546326;4.21568632
203.86968994;3.82352948
203.86968994;3.54901958
203.87365723;3.98039222
203.87777710;4.98039198
203.88194275;4.98039198
203.88194275;4.98039198
203.88592529;4.96078444
203.89007568;4.09803915
203.89416504;2.00000000
203.89830017;2.43137264
203.90242004;3.15686274
203.90242004;3.49019599
203.90643311;2.64705873
203.91052246;1.70588231
203.91465759;0.78431374
203.91465759;1.56862748
203.91864014;2.47058821
203.92279053;3.39215684
203.92691040;3.29411769
203.92691040;2.23529410
203.93103027;1.23529410
203.93516541;0.80392158
203.93916321;2.70588231
203.94328308;3.58823538
203.94744873;3.11764717
203.94744873;1.90196073
203.95156860;0.80392158
203.95571899;0.90196079
203.95968628;1.94117641
203.95968628;2.92156863
203.96386719;3.52941179
203.96794128;2.76470590
203.97212219;1.64705884
203.97212219;1.05882359
203.97608948;1.90196073
203.98017883;2.60784316
203.98434448;3.35294127
203.98846436;2.47058821
203.99246216;1.52941179
203.99246216;1.19607842
203.99671936;2.05882359
204.00077820;3.05882359
204.00486755;3.90196085
204.00486755;3.54901958
204.00878906;2.56862736
204.01292419;1.47058821
204.01704407;1.58823526
204.01704407;2.56862736
204.02119446;3.62745094
204.02532959;4.13725471
204.02928162;2.09803915
204.03343201;1.29411769
204.03752136;1.84313726
204.03752136;3.01960778
204.04165649;4.00000000
204.04566956;3.76470590
204.04980469;2.66666675
204.04980469;1.92156863
204.05393982;1.41176474
204.05805969;2.15686274
204.06217957;3.11764717
204.06217957;4.05882359
204.06620789;3.92156863
204.07032776;3.23529410
204.07444763;2.70588231
204.07858276;3.78431368
204.08270264;4.88235283
204.08270264;4.96078444
204.08668518;4.05882359
204.09080505;3.00000000
204.09494019;2.29411769
204.09494019;2.66666675
204.09901428;3.78431368
204.10307312;4.64705896
204.10719299;4.50980377
204.10719299;3.50980401
204.11129761;2.43137264
204.11543274;1.50980389
204.11944580;3.07843137
204.12355042;3.82352948
204.12765503;3.13725495
204.12765503;1.80392158
204.13177490;0.82352942
204.13578796;0.78431374
204.13993835;1.84313726
204.13993835;2.76470590
204.14407349;3.17647052
204.14817810;2.21568632
204.15232849;1.07843137
204.15232849;0.27450982
204.15632629;0.52941179
204.16046143;1.49019611
204.16046143;2.70588231
204.16456604;2.64705873
204.16865540;1.90196073
204.17268372;0.82352942
204.17268372;0.33333334
204.17680359;1.19607842
204.18090820;2.41176462
204.18508911;3.25490189
204.18508911;2.62745094
204.18908691;1.60784316
204.19319153;0.74509805
204.19731140;1.00000000
204.19731140;2.00000000
204.20144653;2.58823538
204.20558167;3.01960778
204.20558167;2.23529410
204.20973206;0.86274511
204.21369934;0.15686275
204.21783447;1.07843137
204.21783447;2.01960778
204.22198486;2.70588231
204.22596741;2.56862736
204.23010254;1.70588231
204.23010254;0.82352942
204.23419189;0.43137255
204.23832703;1.47058821
204.24244690;2.52941179
204.24244690;3.41176462
204.24649048;2.66666675
204.25067139;1.68627453
204.25067139;0.80392158
204.25465393;1.05882359
204.25877380;2.13725495
204.26283264;3.19607854
204.26283264;3.54901958
204.26690674;2.72549009
204.27108765;1.58823526
204.27516174;0.72549021
204.27516174;1.62745094
204.27915955;2.80392146
204.28327942;3.84313726
204.28744507;3.45098042
204.28744507;2.52941179
204.29153442;1.41176474
204.29568481;1.11764705
204.29568481;2.15686274
204.29968262;3.41176462
204.30381775;3.82352948
204.30792236;3.23529410
204.30792236;2.13725495
204.31204224;0.92156863
204.31607056;1.15686274
204.32017517;2.13725495
204.32017517;3.19607854
204.32431030;3.39215684
204.32844543;2.09803915
204.33256531;1.19607842
204.33256531;0.70588237
204.33670044;1.33333337
204.34066772;2.31372547
204.34066772;3.05882359
204.34481812;2.98039222
204.34892273;2.00000000
204.35292053;1.33333337
204.35292053;1.13725495
204.35702515;1.92156863
204.36117554;2.72549009
204.36528015;3.35294127
204.36528015;2.84313726
204.36935425;2.00000000
204.37339783;1.13725495
204.37771606;2.64705873
204.38169861;3.64705873
204.38581848;3.60784316
204.38581848;2.88235283
204.38980103;2.41176462
204.39395142;1.68627453
204.39807129;1.70588231
204.39807129;2.80392146
204.40219116;3.96078420
204.40620422;3.78431368
204.41027832;2.70588231
204.41027832;1.66666663
204.41441345;1.49019611
204.41851807;2.25490189
204.42265320;3.72549009
204.42668152;2.82352948
204.43077087;1.84313726
204.43077087;0.84313726
204.43492126;1.07843137
204.43904114;1.94117641
204.44308472;3.00000000
204.44308472;3.35294127
204.44720459;2.76470590
204.45129395;1.82352936
204.45541382;1.13725495
204.45541382;1.80392158
204.45939636;2.68627453
204.46369934;3.45098042
204.46765137;2.43137264
204.47178650;1.31372547
204.47590637;0.98039216
204.47590637;1.62745094
204.47988892;3.03921580
204.48405457;3.41176462
204.48814392;2.82352948
204.48814392;2.09803915
204.49227905;1.50980389
204.49629211;2.52941179
204.50041199;4.58823538
204.50041199;5.00000000
204.50456238;4.98039198
204.50869751;4.96078444
204.51281738;4.37254906
204.51681519;4.35294104
204.52095032;4.19607830
204.52095032;4.13725471
204.52507019;3.35294127
204.52915955;2.13725495
204.53314209;1.03921568
204.53314209;0.86274511
204.53727722;1.88235295
204.54138184;2.96078420
204.54553223;3.37254906
204.54553223;2.74509811
204.54966736;1.62745094
204.55368042;0.70588237
204.55778503;1.98039210
204.56190491;3.23529410
204.56607056;3.58823538
204.56607056;2.74509811
204.57005310;1.25490201
204.57417297;0.68627453
204.57827759;1.41176474
204.57827759;2.17647052
204.58242798;3.03921580
204.58644104;2.88235283
204.59069824;2.07843137
204.59069824;1.25490201
204.59469604;1.17647064
204.59877014;2.15686274
204.60289001;3.52941179
204.60688782;2.94117641
204.61105347;2.15686274
204.61105347;1.13725495
204.61514282;1.45098042
204.61930847;2.33333325
204.62327576;3.52941179
204.62327576;3.92156863
204.62744141;3.09803915
204.63156128;1.84313726
204.63568115;1.21568632
204.63568115;2.03921580
204.63969421;3.29411769
204.64379883;4.13725471
204.64793396;2.64705873
204.65205383;1.72549021
204.65623474;1.64705884
204.65623474;2.54901958
204.66015625;3.78431368
204.66427612;4.49019623
204.66841125;3.66666675
204.66841125;2.52941179
204.67254639;1.56862748
204.67666626;2.25490189
204.68066406;3.70588231
204.68066406;4.76470566
204.68478394;4.84313726
204.68896484;4.07843161
204.68896484;3.11764717
204.69311523;2.35294127
204.69705200;3.15686274
204.70117188;4.15686274
204.70117188;4.98039198
204.70529175;4.64705896
204.70945740;3.90196085
204.71357727;2.92156863
204.71357727;2.74509811
204.71768188;3.56862736
204.72164917;4.47058821
204.72576904;4.98039198
204.72576904;4.13725471
204.72975159;3.11764717
204.73391724;2.31372547
204.73391724;2.58823538
204.73805237;3.37254906
204.74212646;4.03921556
204.74627686;4.07843161
204.74627686;3.03921580
204.75028992;1.88235295
204.75444031;1.09803927
204.75854492;1.80392158
204.75854492;2.47058821
204.76268005;3.27450991
204.76667786;2.94117641
204.77079773;1.98039210
204.77079773;0.90196079
204.77494812;0.82352942
204.77906799;1.60784316
204.77906799;2.70588231
204.78302002;3.50980401
204.78718567;2.56862736
204.79132080;1.15686274
204.79132080;0.47058824
204.79544067;0.80392158
204.79957581;1.70588231
204.80375671;2.66666675
204.80375671;2.86274505
204.80766296;2.19607854
204.81179810;1.11764705
204.81591797;0.31372550
204.81591797;0.98039216
204.81997681;1.98039210
204.82403564;3.03921580
204.82403564;2.92156863
204.82817078;1.98039210
204.83230591;0.84313726
204.83645630;0.56862748
204.83645630;1.60784316
204.84040833;2.78431368
204.84460449;3.43137264
204.84866333;2.60784316
204.84866333;1.50980389
204.85279846;0.49019608
204.85678101;1.00000000
204.86090088;2.13725495
204.86090088;3.27450991
204.86502075;3.58823538
204.86918640;2.56862736
204.86918640;1.74509799
204.87329102;1.11764705
204.87724304;1.82352936
204.88137817;2.78431368
204.88137817;3.25490189
204.88552856;2.88235283
204.88967896;1.84313726
204.89379883;0.96078432
204.89379883;0.90196079
204.89778137;1.82352936
204.90190125;2.70588231
204.90605164;2.98039222
204.91000366;1.92156863
204.91413879;1.05882359
204.91413879;1.54901958
204.91825867;2.58823538
204.92240906;3.52941179
204.92651367;3.49019599
204.92651367;2.52941179
204.93063354;1.45098042
204.93467712;0.90196079
204.93879700;1.90196073
204.93879700;2.96078420
204.94291687;3.86274505
204.94691467;3.58823538
204.95103455;1.47058821
204.95518494;0.92156863
204.95928955;2.07843137
204.95928955;3.17647052
204.96328735;3.78431368
204.96743774;3.03921580
204.97169495;2.11764717
204.97169495;1.39215684
204.97569275;1.54901958
204.97981262;2.23529410
204.98394775;3.43137264
204.98394775;3.74509811
204.98794556;2.80392146
204.99208069;2.05882359
204.99620056;2.21568632
205.00016785;3.29411769
205.00434875;3.98039222
205.00434875;3.52941179
205.00837708;2.58823538
205.01257324;1.80392158
205.01669312;1.92156863
205.01669312;2.92156863
205.02066040;3.84313726
205.02484131;4.33333349
205.02894592;3.41176462
205.02894592;2.19607854
205.03300476;1.27450979
205.03713989;1.31372547
205.04110718;3.80392146
205.04528809;3.70588231
205.04943848;2.66666675
205.04943848;1.60784316
205.05357361;0.86274511
205.05766296;1.56862748
205.06164551;2.41176462
205.06164551;3.33333325
205.06582642;3.09803915
205.06994629;2.15686274
205.07406616;1.19607842
205.07406616;1.37254906
205.07806396;2.37254906
205.08218384;3.15686274
205.08625793;2.76470590
205.09025574;1.68627453
205.09445190;1.13725495
205.09445190;1.68627453
205.09854126;2.43137264
205.10263062;3.31372547
205.10679626;3.39215684
205.10679626;2.60784316
205.11077881;2.01960778
205.11489868;2.60784316
205.11903381;4.43137264
205.11903381;4.98039198
205.12318420;4.98039198
205.12725830;4.98039198
205.13131714;4.31372547
205.13542175;3.62745094
205.13955688;3.66666675
205.13955688;3.72549009
205.14369202;3.78431368
205.14765930;2.82352948
205.15180969;1.78431368
205.15180969;0.86274511
205.15592957;1.25490201
205.16001892;2.41176462
205.16413879;3.39215684
205.16413879;3.45098042
205.16816711;2.50980401
205.17228699;1.37254906
205.17639160;1.47058821
205.18038940;2.88235283
205.18467712;4.07843161
205.18467712;3.21568632
205.18864441;2.13725495
205.19281006;1.23529410
205.19692993;1.17647064
205.19692993;1.92156863
205.20088196;3.21568632
205.20506287;3.76470590
205.20921326;2.98039222
205.20921326;2.03921580
205.21328735;1.21568632
205.21742249;1.68627453
205.21742249;2.80392146
205.22138977;3.92156863
205.22552490;4.01960802
205.22964478;2.74509811
205.22964478;1.86274505
205.23381042;1.49019611
205.23779297;2.11764717
205.24189758;3.27450991
205.24189758;4.19607830
205.24601746;3.80392146
205.25022888;2.72549009
205.25425720;1.60784316
205.25425720;1.76470590
205.25827026;2.90196085
205.26242065;3.72549009
205.26242065;4.03921556
205.26657104;3.23529410
205.27069092;2.45098042
205.27468872;1.68627453
205.27468872;2.23529410
205.27883911;3.01960778
205.28289795;3.98039222
205.28701782;4.13725471
205.28701782;3.11764717
205.29101563;2.07843137
205.29518127;1.62745094
205.29927063;2.58823538
205.29927063;3.74509811
205.30342102;4.76470566
205.30751038;4.60784292
205.30751038;3.49019599
205.31169128;2.45098042
205.31568909;2.47058821
205.31982422;3.39215684
205.31982422;4.49019623
205.32379150;4.92156839
205.32791138;4.25490189
205.33203125;3.52941179
205.33203125;2.64705873
205.33618164;3.09803915
205.34028625;3.94117641
205.34445190;4.82352924
205.34445190;4.72549009
205.34840393;3.70588231
205.35264587;2.64705873
205.35264587;2.09803915
205.35664368;2.84313726
205.36064148;3.72549009
205.36477661;4.21568632
205.36477661;3.43137264
205.36892700;2.29411769
205.37301636;1.09803927
205.37718201;1.31372547
205.37718201;2.23529410
205.38116455;3.17647052
205.38528442;3.35294127
205.38943481;2.11764717
205.38943481;1.07843137
205.39358521;0.39215687
205.39770508;0.90196079
205.39770508;1.74509799
205.40167236;2.47058821
205.40579224;2.56862736
205.40988159;1.74509799
205.40988159;0.84313726
205.41398621;0.50980395
205.41801453;1.17647064
205.42218018;2.21568632
205.42218018;3.15686274
205.42626953;2.56862736
205.43034363;1.54901958
205.43435669;0.56862748
205.43869019;1.54901958
205.44267273;2.60784316
205.44267273;2.96078420
205.44679260;2.25490189
205.45086670;1.41176474
205.45489502;0.56862748
205.45489502;1.21568632
205.45903015;2.31372547
205.46316528;3.17647052
205.46726990;3.15686274
205.46726990;2.13725495
205.47123718;0.94117647
205.47537231;0.52941179
205.47949219;2.41176462
205.48365784;3.13725495
205.48776245;2.52941179
205.48776245;1.60784316
205.49174500;0.72549021
205.49586487;0.86274511
205.50004578;1.72549021
205.50004578;2.74509811
205.50416565;3.27450991
205.50814819;2.33333325
205.51228333;1.37254906
205.51228333;0.62745100
205.51641846;1.31372547
205.52055359;2.29411769
205.52470398;3.27450991
205.52867126;2.58823538
205.53274536;1.56862748
205.53274536;0.66666669
205.53688049;1.37254906
205.54086304;3.15686274
205.54502869;3.80392146
205.54502869;3.31372547
205.54913330;2.11764717
205.55326843;1.23529410
205.55737305;1.49019611
205.55737305;2.37254906
205.56140137;3.33333325
205.56568909;3.62745094
205.56965637;1.76470590
205.57380676;1.13725495
205.57795715;1.49019611
205.57795715;2.35294127
205.58192444;3.29411769
205.58602905;3.03921580
205.59020996;2.35294127
205.59020996;1.52941179
205.59426880;1.25490201
205.59829712;1.92156863
205.60243225;3.01960778
205.60243225;3.82352948
205.60655212;3.25490189
205.61067200;2.13725495
205.61468506;1.60784316
205.61883545;2.86274505
205.62292480;3.86274505
205.62292480;4.15686274
205.62701416;3.21568632
205.63114929;2.09803915
205.63519287;1.27450979
205.63519287;1.88235295
205.63929749;2.96078420
205.64341736;3.98039222
205.64749146;3.98039222
205.64749146;2.82352948
205.65167236;1.76470590
205.65563965;1.43137252
205.65974426;3.15686274
205.66386414;3.76470590
205.66799927;3.31372547
205.66799927;2.07843137
205.67201233;1.09803927
205.67613220;1.25490201
205.68025208;2.17647052
205.68025208;3.35294127
205.68440247;3.92156863
205.68840027;3.21568632
205.69268799;2.09803915
205.69268799;1.29411769
205.69670105;1.90196073
205.70079041;2.82352948
205.70480347;3.33333325
205.70892334;2.54901958
205.71307373;1.80392158
205.71307373;1.33333337
205.71716309;2.03921580
205.72129822;3.15686274
205.72529602;4.33333349
205.72529602;4.43137264
205.72941589;4.33333349
205.73350525;4.13725471
205.73767090;4.88235283
205.73767090;4.98039198
205.74169922;4.98039198
205.74580383;4.98039198
205.74580383;4.31372547
205.74989319;2.60784316
205.75401306;1.31372547
205.75811768;1.54901958
205.75811768;2.23529410
205.76214600;3.09803915
205.76632690;2.90196085
205.77040100;1.96078432
205.77040100;0.98039216
205.77455139;1.13725495
205.77870178;2.03921580
205.78262329;2.86274505
205.78262329;3.68627453
205.78677368;3.05882359
205.79087830;1.96078432
205.79087830;1.17647064
205.79490662;1.62745094
205.79901123;2.68627453
205.80317688;3.66666675
205.80317688;3.62745094
205.80725098;2.74509811
205.81138611;1.72549021
205.81541443;1.03921568
205.81541443;1.62745094
205.81953430;2.74509811
205.82366943;3.68627453
205.82778931;3.50980401
205.82778931;2.64705873
205.83177185;1.43137252
205.83590698;0.94117647
205.83590698;1.98039210
205.84007263;3.03921580
205.84419250;3.80392146
205.84828186;3.17647052
205.84828186;2.25490189
205.85231018;1.13725495
205.85641479;1.23529410
205.86053467;2.45098042
205.86053467;3.76470590
205.86466980;4.15686274
205.86865234;3.33333325
205.87275696;2.33333325
205.87275696;1.74509799
205.87686157;2.13725495
205.88098145;3.11764717
205.88098145;4.00000000
205.88502502;3.62745094
205.88917542;2.60784316
205.89326477;1.70588231
205.89326477;1.66666663
205.89738464;2.49019599
205.90150452;3.33333325
205.90562439;4.29411745
205.90562439;3.72549009
205.90962219;2.92156863
205.91372681;2.09803915
205.91793823;3.07843137
205.92187500;4.01960802
205.92597961;4.49019623
205.92597961;3.68627453
205.93011475;2.68627453
205.93429565;2.01960778
205.93841553;2.50980401
205.93841553;3.76470590
205.94241333;4.76470566
205.94653320;4.50980377
205.95066833;3.64705873
205.95066833;2.72549009
205.95480347;2.47058821
205.95877075;3.21568632
205.96292114;4.54901981
205.96702576;4.01960802
205.97111511;2.64705873
205.97111511;1.54901958
205.97511292;1.68627453
205.97923279;2.60784316
205.98341370;3.45098042
205.98341370;3.47058821
205.98753357;2.15686274
205.99162292;1.17647064
205.99562073;0.52941179
205.99562073;1.23529410
205.99980164;2.11764717
206.00392151;2.90196085
206.00804138;1.47058821
206.01202393;0.50980395
206.01623535;0.23529412
206.01623535;1.37254906
206.02026367;2.31372547
206.02438354;2.94117641
206.02850342;2.27450991
206.02850342;1.07843137
206.03259277;0.25490198
206.03660583;0.52941179
206.04071045;1.31372547
206.04071045;2.35294127
206.04490662;2.56862736
206.04888916;1.70588231
206.05303955;0.31372550
206.05714417;0.98039216
206.06134033;1.82352936
206.06134033;2.49019599
206.06527710;2.54901958
206.06938171;1.64705884
206.07363892;0.76470590
206.07363892;0.49019608
206.07765198;1.39215684
206.08177185;2.58823538
206.08575439;3.33333325
206.08575439;2.52941179
206.08988953;1.35294116
206.09397888;0.60784316
206.09811401;2.15686274
206.10209656;3.37254906
206.10626221;3.56862736
206.10626221;2.47058821
206.11036682;1.47058821
206.11448669;0.76470590
206.11863708;1.68627453
206.11863708;2.66666675
206.12263489;3.98039222
206.12675476;3.90196085
206.13088989;2.84313726
206.13088989;1.88235295
206.13499451;1.72549021
206.13900757;2.33333325
206.14314270;3.78431368
206.14724731;3.05882359
206.15136719;1.90196073
206.15136719;1.03921568
206.15538025;1.33333337
206.15963745;2.37254906
206.16362000;3.41176462
206.16362000;3.50980401
206.16775513;2.52941179
206.17185974;1.43137252
206.17584229;0.92156863
206.17584229;1.64705884
206.17996216;2.68627453
206.18412781;3.52941179
206.18824768;2.07843137
206.19223022;1.29411769
206.19636536;1.11764705
206.19636536;2.19607854
206.20046997;3.41176462
206.20465088;4.03921556
206.20875549;3.23529410
206.20875549;2.03921580
206.21275330;1.19607842
206.21684265;1.72549021
206.22100830;2.64705873
206.22100830;3.74509811
206.22512817;3.98039222
206.22912598;3.27450991
206.23327637;1.23529410
206.23738098;1.82352936
206.24148560;2.82352948
206.24148560;4.05882359
206.24560547;3.82352948
206.24967957;2.62745094
206.25376892;1.35294116
206.25376892;1.17647064
206.25790405;2.09803915
206.26190186;3.21568632
206.26602173;3.82352948
206.26602173;3.05882359
206.27015686;1.94117641
206.27424622;1.05882359
206.27424622;1.33333337
206.27838135;2.35294127
206.28237915;3.33333325
206.28660583;3.58823538
206.28660583;2.50980401
206.29060364;1.54901958
206.29475403;1.01960790
206.29885864;1.74509799
206.29885864;2.82352948
206.30288696;3.35294127
206.30697632;2.88235283
206.31117249;1.54901958
206.31117249;0.76470590
206.31527710;0.90196079
206.31929016;2.43137264
206.31929016;4.33333349
206.32334900;4.98039198
206.32749939;4.98039198
206.33163452;4.86274529
206.33163452;4.54901981
206.33561707;4.98039198
206.33976746;4.98039198
206.34384155;4.98039198
206.34384155;4.29411745
206.34800720;3.03921580
206.35212708;1.47058821
206.35612488;0.86274511
206.35612488;1.58823526
206.36026001;2.80392146
206.36437988;3.68627453
206.36437988;3.31372547
206.36851501;2.39215684
206.37261963;1.23529410
206.37658691;1.03921568
206.37658691;1.90196073
206.38072205;3.27450991
206.38488770;3.86274505
206.38902283;2.90196085
206.38902283;2.00000000
206.39299011;1.19607842
206.39715576;1.27450979
206.40124512;2.15686274
206.40124512;3.29411769
206.40533447;3.23529410
206.40934753;2.41176462
206.40934753;1.60784316
206.41358948;0.74509805
206.41766357;1.66666663
206.42173767;2.66666675
206.42173767;3.64705873
206.42572021;3.09803915
206.42984009;2.17647052
206.43402100;1.25490201
206.43402100;1.13725495
206.43814087;2.05882359
206.44227600;3.17647052
206.44627380;3.39215684
206.45033264;2.21568632
206.45449829;1.58823526
206.45449829;2.05882359
206.45863342;2.94117641
206.46263123;3.86274505
206.46676636;3.96078420
206.46676636;2.70588231
206.47087097;1.70588231
206.47500610;1.03921568
206.47911072;1.92156863
206.47911072;2.96078420
206.48312378;4.00000000
206.48724365;3.68627453
206.49137878;2.17647052
206.49549866;1.94117641
206.49960327;2.86274505
206.49960327;3.90196085
206.50360107;4.29411745
206.50773621;3.66666675
206.51188660;2.80392146
206.51188660;2.00000000
206.51588440;2.47058821
206.52001953;3.52941179
206.52410889;4.49019623
206.52410889;4.70588255
206.52830505;3.82352948
206.53236389;2.84313726
206.53634644;3.21568632
206.54046631;4.47058821
206.54461670;4.98039198
206.54461670;4.23529434
206.54870605;3.21568632
206.55273438;2.29411769
206.55683899;2.15686274
206.55683899;2.92156863
206.56101990;3.80392146
206.56512451;4.23529434
206.56925964;3.25490189
206.56925964;2.15686274
206.57325745;1.41176474
206.57736206;1.64705884
206.58152771;3.35294127
206.58563232;3.11764717
206.58967590;1.92156863
206.58967590;0.82352942
206.59376526;0.17647059
206.59788513;0.94117647
206.60203552;1.98039210
206.60203552;3.01960778
206.60601807;2.76470590
206.61013794;1.66666663
206.61424255;0.45098040
206.61424255;0.62745100
206.61837769;1.45098042
206.62255859;2.07843137
206.62660217;2.07843137
206.63059998;1.13725495
206.63479614;0.19607843
206.63479614;0.64705884
206.63893127;1.47058821
206.64288330;2.80392146
206.64698792;3.17647052
206.64698792;1.86274505
206.65113831;0.68627453
206.65527344;0.35294119
206.65937805;1.31372547
206.65937805;2.41176462
206.66336060;3.17647052
206.66767883;2.72549009
206.67164612;1.01960790
206.67573547;1.03921568
206.67974854;1.92156863
206.67974854;3.11764717
206.68385315;3.80392146
206.68801880;3.03921580
206.69212341;1.92156863
206.69212341;0.96078432
206.69610596;1.43137252
206.70022583;2.45098042
206.70433044;3.43137264
206.70433044;3.43137264
206.70851135;2.43137264
206.71264648;1.54901958
206.71661377;1.96078432
206.72074890;2.76470590
206.72483826;3.56862736
206.72483826;3.17647052
206.72898865;1.82352936
206.73297119;0.80392158
206.73709106;1.23529410
206.73709106;2.43137264
206.74121094;3.31372547
206.74537659;4.05882359
206.74951172;3.13725495
206.74951172;2.03921580
206.75363159;1.19607842
206.75762939;1.78431368
206.76174927;3.78431368
206.76586914;3.76470590
206.76986694;2.82352948
206.76986694;1.78431368
206.77398682;1.17647064
206.77813721;1.98039210
206.78225708;3.03921580
206.78225708;3.90196085
206.78623962;3.43137264
206.79032898;2.47058821
206.79461670;1.43137252
206.79461670;1.66666663
206.79859924;2.62745094
206.80274963;3.62745094
206.80274963;4.15686274
206.80671692;3.27450991
206.81089783;2.37254906
206.81500244;1.68627453
206.81500244;2.43137264
206.81912231;3.41176462
206.82308960;4.13725471
206.82723999;3.68627453
206.82723999;2.07843137
206.83137512;1.62745094
206.83547974;1.43137252
206.83963013;2.33333325
206.83963013;3.37254906
206.84358215;4.15686274
206.84771729;3.52941179
206.84771729;2.41176462
206.85183716;1.35294116
206.85606384;1.45098042
206.85997009;2.13725495
206.85997009;3.58823538
206.86408997;3.90196085
206.86824036;2.92156863
206.87239075;1.68627453
206.87239075;0.94117647
206.87637329;1.45098042
206.88064575;2.39215684
206.88462830;3.41176462
206.88462830;3.13725495
206.88877869;1.90196073
206.89289856;1.15686274
206.89289856;0.90196079
206.89686584;1.66666663
206.90100098;2.86274505
206.90510559;4.23529434
206.90510559;4.13725471
206.90922546;3.80392146
206.91323853;3.43137264
206.91738892;4.27450991
206.91738892;4.98039198
206.92149353;4.98039198
206.92561340;4.98039198
206.92973328;4.31372547
206.92973328;2.88235283
206.93374634;1.74509799
206.93789673;1.86274505
206.93789673;2.62745094
206.94201660;3.43137264
206.94613647;3.39215684
206.95014954;2.21568632
206.95014954;1.21568632
206.95428467;0.80392158
206.95834351;1.52941179
206.96249390;2.49019599
206.96249390;3.49019599
206.96659851;3.00000000
206.97061157;2.01960778
206.97473145;1.15686274
206.97889709;2.29411769
206.98300171;3.29411769
206.98300171;3.56862736
206.98699951;2.62745094
206.99110413;1.68627453
206.99526978;1.05882359
206.99526978;1.58823526
206.99937439;2.45098042
207.00337219;3.50980401
207.00764465;3.52941179
207.00764465;2.62745094
207.01165771;1.64705884
207.01577759;1.29411769
207.01989746;3.27450991
207.02389526;3.96078420
207.02801514;3.03921580
207.02801514;2.01960778
207.03213501;1.00000000
207.03619385;1.25490201
207.04022217;2.29411769
207.04022217;3.50980401
207.04437256;3.76470590
207.04847717;2.88235283
207.05264282;1.72549021
207.05264282;0.96078432
207.05665588;1.47058821
207.06074524;2.49019599
207.06492615;3.96078420
207.06901550;3.07843137
207.07313538;2.11764717
207.07313538;1.56862748
207.07711792;2.37254906
207.08125305;3.45098042
207.08537292;4.21568632
207.08537292;3.96078420
207.08949280;3.01960778
207.09359741;2.13725495
207.09765625;2.43137264
207.09765625;3.58823538
207.10177612;4.41176462
207.10589600;4.74509811
