Time;Amplitude
313.08740234;2.68627453
313.08740234;2.45098042
313.09149170;2.45098042
313.09555054;2.49019599
313.09963989;2.45098042
313.09963989;2.47058821
313.10375977;2.43137264
313.10787964;2.49019599
313.11190796;2.47058821
313.11602783;2.37254906
313.12014771;2.27450991
313.12014771;2.54901958
313.12420654;2.49019599
313.12832642;2.43137264
313.13244629;2.66666675
313.13244629;2.60784316
313.13653564;2.19607854
313.14059448;2.21568632
313.14471436;2.21568632
313.14471436;2.00000000
313.14880371;1.82352936
313.15289307;1.88235295
313.15704346;2.11764717
313.16110229;2.31372547
313.16519165;2.56862736
313.16519165;2.62745094
313.16931152;2.62745094
313.17333984;2.70588231
313.17749023;2.76470590
313.17749023;2.62745094
313.18157959;2.68627453
313.18566895;2.74509811
313.18978882;2.60784316
313.18978882;2.64705873
313.19384766;2.94117641
313.19796753;2.98039222
313.20202637;2.88235283
313.20614624;2.82352948
313.21026611;2.56862736
313.21026611;2.23529410
313.21435547;2.01960778
313.21847534;2.11764717
313.22256470;2.21568632
313.22256470;2.37254906
313.22668457;2.25490189
313.23080444;2.35294127
313.23495483;2.35294127
313.23495483;2.17647052
313.23898315;1.84313726
313.24307251;2.13725495
313.24713135;2.58823538
313.25119019;2.54901958
313.25534058;2.96078420
313.25534058;3.01960778
313.25939941;2.66666675
313.26348877;2.62745094
313.26757813;2.56862736
313.26757813;2.35294127
313.27169800;2.27450991
313.27578735;2.33333325
313.27990723;2.23529410
313.27990723;2.47058821
313.28396606;2.56862736
313.28805542;2.70588231
313.29217529;2.80392146
313.29632568;3.05882359
313.30038452;2.96078420
313.30038452;2.98039222
313.30447388;3.33333325
313.30853271;2.88235283
313.31265259;2.98039222
313.31265259;2.96078420
313.31674194;2.74509811
313.32083130;2.25490189
313.32498169;2.37254906
313.32498169;2.27450991
313.32904053;1.88235295
313.33316040;2.00000000
313.33718872;1.80392158
313.34133911;1.80392158
313.34542847;1.90196073
313.34542847;1.76470590
313.34960938;1.54901958
313.35360718;1.45098042
313.35772705;1.52941179
313.35772705;1.31372547
313.36181641;1.58823526
313.36587524;1.72549021
313.37002563;1.84313726
313.37002563;1.92156863
313.37408447;2.11764717
313.37820435;2.41176462
313.38232422;2.45098042
313.38638306;2.54901958
313.39053345;2.37254906
313.39053345;2.47058821
313.39459229;2.56862736
313.39868164;2.47058821
313.40280151;2.68627453
313.40280151;3.00000000
313.40689087;3.03921580
313.41091919;3.05882359
313.41506958;3.07843137
313.41506958;3.21568632
313.41912842;3.05882359
313.42333984;3.17647052
313.42730713;3.01960778
313.43142700;2.98039222
313.43554688;2.70588231
313.43554688;2.62745094
313.43969727;2.62745094
313.44372559;2.56862736
313.44784546;2.45098042
313.44784546;2.54901958
313.45190430;2.60784316
313.45605469;2.58823538
313.46014404;2.31372547
313.46014404;2.41176462
313.46420288;2.35294127
313.46832275;2.25490189
313.47247314;2.01960778
313.47653198;2.19607854
313.48062134;2.19607854
313.48062134;2.47058821
313.48468018;2.70588231
313.48880005;2.60784316
313.49291992;2.68627453
313.49291992;2.88235283
313.49697876;2.72549009
313.50109863;2.72549009
313.50518799;2.88235283
313.50518799;3.23529410
313.50930786;3.37254906
313.51339722;3.41176462
313.51748657;2.94117641
313.52157593;2.62745094
313.52572632;2.11764717
313.52572632;1.68627453
313.52972412;1.66666663
313.53384399;1.62745094
313.53796387;2.00000000
313.53796387;2.31372547
313.54205322;2.54901958
313.54623413;2.88235283
313.55023193;2.60784316
313.55023193;2.82352948
313.55432129;2.72549009
313.55844116;2.52941179
313.56256104;2.43137264
313.56661987;2.47058821
313.57073975;2.33333325
313.57073975;2.66666675
313.57482910;2.62745094
313.57888794;2.54901958
313.58303833;2.82352948
313.58303833;2.84313726
313.58709717;2.82352948
313.59127808;2.68627453
313.59530640;2.49019599
313.59530640;2.70588231
313.59936523;2.29411769
313.60348511;2.15686274
313.60763550;2.41176462
313.61169434;2.33333325
313.61578369;2.68627453
313.61578369;2.64705873
313.61984253;2.43137264
313.62393188;2.49019599
313.62808228;2.47058821
313.62808228;2.33333325
313.63217163;2.31372547
313.63629150;2.43137264
313.64044189;2.41176462
313.64044189;2.66666675
313.64447021;2.60784316
313.64855957;2.64705873
313.65264893;2.62745094
313.65676880;2.60784316
313.66085815;2.54901958
313.66085815;2.80392146
313.66491699;3.00000000
313.66903687;2.80392146
313.67337036;3.11764717
313.67337036;3.01960778
313.67721558;2.60784316
313.68133545;2.43137264
313.68545532;2.21568632
313.68545532;1.82352936
313.68951416;1.54901958
313.69360352;1.70588231
313.69772339;1.88235295
313.70184326;2.27450991
313.70593262;2.43137264
313.70593262;2.35294127
313.71002197;2.29411769
313.71411133;2.29411769
313.71817017;2.37254906
313.71817017;2.03921580
313.72235107;2.23529410
313.72640991;2.47058821
313.73049927;2.39215684
313.73049927;2.39215684
313.73455811;2.50980401
313.73867798;2.58823538
313.74282837;2.90196085
313.74688721;3.11764717
313.75097656;2.92156863
313.75097656;2.74509811
313.75506592;2.82352948
313.75918579;2.45098042
313.76330566;2.31372547
313.76330566;2.13725495
313.76733398;2.00000000
313.77145386;2.21568632
313.77554321;2.15686274
313.77554321;2.23529410
313.77963257;2.05882359
313.78375244;2.19607854
313.78784180;2.39215684
313.79193115;2.27450991
313.79605103;2.33333325
313.79605103;2.39215684
313.80010986;2.23529410
313.80422974;2.25490189
313.80831909;2.17647052
313.80831909;2.01960778
313.81240845;2.25490189
313.81649780;2.52941179
313.82064819;2.29411769
313.82064819;2.54901958
313.82470703;2.68627453
313.82885742;2.66666675
313.83291626;2.76470590
313.83700562;2.49019599
313.84112549;2.62745094
313.84112549;2.47058821
313.84518433;2.13725495
313.84930420;1.68627453
313.85339355;1.82352936
313.85339355;2.49019599
313.85748291;2.19607854
313.86157227;2.25490189
313.86566162;2.90196085
313.86566162;3.19607854
313.86975098;3.00000000
313.87387085;2.94117641
313.87792969;2.80392146
313.88204956;2.76470590
313.88616943;2.78431368
313.88616943;2.52941179
313.89025879;2.35294127
313.89428711;2.33333325
313.89843750;2.33333325
313.89843750;2.21568632
313.90252686;2.41176462
313.90667725;2.49019599
313.91073608;2.33333325
313.91073608;2.45098042
313.91482544;2.47058821
313.91891479;2.23529410
313.92300415;2.52941179
313.92712402;2.37254906
313.93121338;2.11764717
313.93121338;2.21568632
313.93530273;2.11764717
313.93951416;1.76470590
313.94351196;1.68627453
313.94351196;1.66666663
313.94760132;1.62745094
313.95166016;1.82352936
313.95581055;1.90196073
313.95581055;1.94117641
313.95986938;2.21568632
313.96401978;2.45098042
313.96804810;2.52941179
313.97216797;2.80392146
313.97644043;2.98039222
313.97644043;2.56862736
313.98037720;2.50980401
313.98443604;2.80392146
313.98855591;2.27450991
313.98855591;1.92156863
313.99267578;2.03921580
313.99673462;2.05882359
314.00085449;2.17647052
314.00085449;2.58823538
314.00497437;2.88235283
314.00906372;3.01960778
314.01315308;3.45098042
314.01721191;3.37254906
314.02136230;3.21568632
314.02136230;3.29411769
314.02545166;3.25490189
314.02951050;2.90196085
314.03363037;2.94117641
314.03363037;3.00000000
314.03775024;2.84313726
314.04180908;2.92156863
314.04592896;3.03921580
314.04592896;3.01960778
314.04998779;2.90196085
314.05410767;2.84313726
314.05819702;2.64705873
314.06231689;2.47058821
314.06640625;2.41176462
314.06640625;2.33333325
314.07046509;2.43137264
314.07458496;2.39215684
314.07870483;2.56862736
314.07870483;2.25490189
314.08279419;2.37254906
314.08688354;2.23529410
314.09103394;1.88235295
314.09103394;1.74509799
314.09506226;1.82352936
314.09918213;1.86274505
314.10324097;2.70588231
314.10736084;2.70588231
314.11145020;2.94117641
314.11145020;2.96078420
314.11553955;2.92156863
314.11959839;2.64705873
314.12374878;2.68627453
314.12374878;2.68627453
314.12783813;2.47058821
314.13192749;2.49019599
314.13604736;2.56862736
314.13604736;2.60784316
314.14013672;2.76470590
314.14422607;3.21568632
314.14831543;3.00000000
314.15237427;3.23529410
314.15652466;2.76470590
314.15652466;2.23529410
314.16058350;1.96078432
314.16470337;1.74509799
314.16879272;1.66666663
314.16879272;1.84313726
314.17291260;1.74509799
314.17700195;2.07843137
314.18109131;2.00000000
314.18109131;2.00000000
314.18515015;2.00000000
314.18933105;1.94117641
314.19335938;2.29411769
314.19747925;2.35294127
314.20156860;2.45098042
314.20156860;2.70588231
314.20574951;2.80392146
314.20971680;2.70588231
314.21386719;2.88235283
314.21386719;2.96078420
314.21792603;2.72549009
314.22204590;2.76470590
314.22625732;2.74509811
314.22625732;2.37254906
314.23034668;2.37254906
314.23437500;2.33333325
314.23849487;2.09803915
314.24252319;2.39215684
314.24664307;2.45098042
314.24664307;2.58823538
314.25073242;2.86274505
314.25482178;2.72549009
314.25891113;2.80392146
314.25891113;2.68627453
314.26303101;2.52941179
314.26705933;2.17647052
314.27120972;1.92156863
314.27120972;1.86274505
314.27532959;1.84313726
314.27941895;1.86274505
314.28347778;2.47058821
314.28759766;2.50980401
314.29171753;2.39215684
314.29171753;2.56862736
314.29577637;2.47058821
314.29986572;2.15686274
314.30398560;2.35294127
314.30398560;2.33333325
314.30807495;2.21568632
314.31216431;2.15686274
314.31631470;2.25490189
314.31631470;2.17647052
314.32034302;2.17647052
314.32446289;2.31372547
314.32855225;2.23529410
314.33264160;2.31372547
314.33676147;2.68627453
314.33676147;2.68627453
314.34085083;2.76470590
314.34490967;2.54901958
314.34902954;2.58823538
314.34902954;2.52941179
314.35311890;2.27450991
314.35723877;2.09803915
314.36135864;1.94117641
314.36135864;2.15686274
314.36541748;2.45098042
314.36950684;2.37254906
314.37362671;2.72549009
314.37765503;2.58823538
314.38180542;2.76470590
314.38180542;2.98039222
314.38589478;2.70588231
314.39001465;2.66666675
314.39413452;2.68627453
314.39413452;2.58823538
314.39868164;2.35294127
314.40231323;2.49019599
314.40643311;2.60784316
314.40643311;2.27450991
314.41046143;2.37254906
314.41461182;2.45098042
314.41867065;2.17647052
314.42279053;2.25490189
314.42687988;2.31372547
314.42687988;2.49019599
314.43096924;2.31372547
314.43505859;2.37254906
314.43920898;2.15686274
314.43920898;2.17647052
314.44323730;1.92156863
314.44735718;1.72549021
314.45144653;1.70588231
314.45144653;1.78431368
314.45559692;2.09803915
314.45965576;2.25490189
314.46374512;3.05882359
314.46780396;2.72549009
314.47195435;3.09803915
314.47195435;3.15686274
314.47604370;2.60784316
314.48010254;2.27450991
314.48422241;2.25490189
314.48422241;2.37254906
314.48831177;2.27450991
314.49240112;2.25490189
314.49652100;2.49019599
314.49652100;2.49019599
314.50057983;2.54901958
314.50473022;2.80392146
314.50878906;2.66666675
314.51284790;2.76470590
314.51699829;2.88235283
314.51699829;2.62745094
314.52105713;2.58823538
314.52517700;2.68627453
314.52929688;2.66666675
314.52929688;2.72549009
314.53335571;2.62745094
314.53747559;2.78431368
314.54159546;2.33333325
314.54159546;2.19607854
314.54568481;2.21568632
314.54977417;1.70588231
314.55386353;1.92156863
314.55795288;1.94117641
314.56207275;2.00000000
314.56207275;2.23529410
314.56613159;2.27450991
314.57022095;2.39215684
314.57437134;2.37254906
314.57437134;2.52941179
314.57843018;2.41176462
314.58251953;2.54901958
314.58663940;2.62745094
314.58663940;2.56862736
314.59075928;2.54901958
314.59481812;2.74509811
314.59890747;2.60784316
314.60302734;2.70588231
314.60714722;2.80392146
314.60714722;2.84313726
314.61132813;2.96078420
314.61532593;2.98039222
314.61941528;3.07843137
314.61941528;3.27450991
314.62350464;3.31372547
314.62759399;3.13725495
314.63168335;3.07843137
314.63168335;2.98039222
314.63577271;3.00000000
314.63986206;2.41176462
314.64395142;2.09803915
314.64807129;1.82352936
314.65216064;1.84313726
314.65216064;1.90196073
314.65676880;2.11764717
314.66040039;2.27450991
314.66448975;2.64705873
314.66448975;2.94117641
314.66854858;2.80392146
314.67272949;2.88235283
314.67675781;2.88235283
314.67675781;2.66666675
314.68084717;2.62745094
314.68493652;2.62745094
314.68905640;2.56862736
314.69311523;2.62745094
314.69723511;2.74509811
314.69723511;2.66666675
314.70132446;2.80392146
314.70547485;2.82352948
314.70953369;2.76470590
314.70953369;2.82352948
314.71362305;2.98039222
314.71771240;2.80392146
314.72183228;2.72549009
314.72183228;3.00000000
314.72592163;2.76470590
314.73001099;2.49019599
314.73599243;2.33333325
314.73818970;2.25490189
314.74234009;2.11764717
314.74234009;2.31372547
314.74639893;2.27450991
314.75045776;2.56862736
314.75460815;2.86274505
314.75460815;2.94117641
314.75866699;2.84313726
314.76275635;3.01960778
314.76687622;3.09803915
314.76687622;2.82352948
314.77093506;2.74509811
314.77508545;2.76470590
314.77917480;2.45098042
314.78363037;2.49019599
314.78735352;2.21568632
314.78735352;1.86274505
314.79147339;1.62745094
314.79550171;1.68627453
314.79965210;1.52941179
314.79965210;1.52941179
314.80371094;1.58823526
314.80783081;1.56862748
314.81195068;1.74509799
314.81195068;1.92156863
314.81600952;2.21568632
314.82009888;2.31372547
314.82421875;2.72549009
314.82830811;2.66666675
314.83239746;2.47058821
314.83239746;2.52941179
314.83648682;2.35294127
314.84060669;2.19607854
314.84472656;2.15686274
314.84472656;2.21568632
314.84878540;2.15686274
314.85287476;2.43137264
314.85702515;2.33333325
314.85702515;2.13725495
314.86114502;2.41176462
314.86520386;2.29411769
314.86932373;2.09803915
314.87335205;2.11764717
314.87768555;2.29411769
314.87768555;2.50980401
314.88156128;2.68627453
314.88562012;2.86274505
314.88980103;2.84313726
314.88980103;2.96078420
314.89382935;3.00000000
314.89794922;2.84313726
314.90203857;2.88235283
314.90203857;2.92156863
314.90612793;2.86274505
314.91024780;2.78431368
314.91433716;2.58823538
314.91842651;2.29411769
314.92254639;2.27450991
314.92254639;2.27450991
314.92663574;2.29411769
314.93072510;2.47058821
314.93481445;2.56862736
314.93481445;3.01960778
314.93893433;3.05882359
314.94302368;2.94117641
314.94711304;2.90196085
314.94711304;2.50980401
314.95141602;2.23529410
314.95538330;1.90196073
314.95941162;1.49019611
314.96350098;1.80392158
314.96759033;1.94117641
314.96759033;2.09803915
314.97167969;2.43137264
314.97576904;2.64705873
314.97988892;2.49019599
314.97988892;2.76470590
314.98397827;2.88235283
314.98806763;2.72549009
314.99218750;2.84313726
314.99218750;2.80392146
314.99630737;2.82352948
315.00036621;2.60784316
315.00445557;2.72549009
315.00854492;2.29411769
315.01269531;2.39215684
315.01269531;2.41176462
315.01675415;2.11764717
315.02078247;2.21568632
315.02496338;2.49019599
315.02496338;2.41176462
315.02902222;2.52941179
315.03311157;2.54901958
315.03723145;2.52941179
315.03723145;2.27450991
315.04132080;2.27450991
315.04541016;2.37254906
315.04956055;2.41176462
315.05361938;2.52941179
315.05770874;2.64705873
315.05770874;2.74509811
315.06179810;2.92156863
315.06588745;3.05882359
315.07000732;2.90196085
315.07000732;2.94117641
315.07409668;2.90196085
315.07815552;2.86274505
315.08230591;2.88235283
315.08230591;2.60784316
315.08636475;3.01960778
315.09054565;2.66666675
315.09454346;2.98039222
315.09869385;2.00000000
315.10278320;2.03921580
315.10278320;2.09803915
315.10690308;1.58823526
315.11093140;1.45098042
315.11508179;1.29411769
315.11508179;1.33333337
315.11914063;1.52941179
315.12322998;1.82352936
315.12734985;2.01960778
315.12734985;2.05882359
315.13143921;2.19607854
315.13552856;2.29411769
315.13964844;2.27450991
315.14370728;2.41176462
315.14782715;2.35294127
315.14782715;2.33333325
315.15191650;2.37254906
315.15606689;2.50980401
315.16012573;2.27450991
315.16012573;2.43137264
315.16418457;2.56862736
315.16830444;2.41176462
315.17263794;2.56862736
315.17263794;2.86274505
315.17648315;2.92156863
315.18057251;2.76470590
315.18472290;3.60784316
315.18878174;2.86274505
315.19290161;2.49019599
315.19290161;2.80392146
315.19699097;2.07843137
315.20108032;1.86274505
315.20523071;1.72549021
315.20523071;1.68627453
315.20932007;1.78431368
315.21337891;1.92156863
315.21746826;2.21568632
315.21746826;2.29411769
315.22155762;2.47058821
315.22573853;2.76470590
315.22985840;2.86274505
315.23385620;2.98039222
315.23797607;2.96078420
315.23797607;2.92156863
315.24206543;3.03921580
315.24615479;3.09803915
315.25024414;2.96078420
315.25024414;2.98039222
315.25433350;3.07843137
315.25845337;3.11764717
315.26257324;3.25490189
315.26257324;3.21568632
315.26660156;3.25490189
315.27072144;3.00000000
315.27484131;2.52941179
315.27886963;2.11764717
315.28302002;2.01960778
315.28302002;2.25490189
315.28707886;2.27450991
315.29119873;2.05882359
315.29531860;2.25490189
315.29531860;2.41176462
315.29937744;2.11764717
315.30349731;2.15686274
315.30758667;2.25490189
315.30758667;2.21568632
315.31170654;2.49019599
315.31579590;2.72549009
315.31985474;2.78431368
315.32397461;3.19607854
315.32806396;3.13725495
315.32806396;3.07843137
315.33215332;3.05882359
315.33621216;2.98039222
315.34039307;2.78431368
315.34039307;2.60784316
315.34445190;2.31372547
315.34857178;2.17647052
315.35266113;2.03921580
315.35266113;2.01960778
315.35678101;1.84313726
315.36083984;1.72549021
315.36492920;2.07843137
315.36901855;1.86274505
315.37313843;2.01960778
315.37313843;2.15686274
315.37728882;1.98039210
315.38131714;2.05882359
315.38540649;2.13725495
315.38540649;2.11764717
315.38952637;2.03921580
315.39361572;2.11764717
315.39770508;2.25490189
315.39770508;2.19607854
315.40179443;2.35294127
315.40588379;2.47058821
315.41000366;2.68627453
315.41409302;3.07843137
315.41818237;2.66666675
315.41818237;2.82352948
315.42233276;3.01960778
315.42639160;2.52941179
315.43048096;2.29411769
315.43048096;2.37254906
315.43457031;2.29411769
315.43869019;2.05882359
315.44277954;2.17647052
315.44277954;2.49019599
315.44686890;2.45098042
315.45095825;2.05882359
315.45510864;2.21568632
315.45913696;2.07843137
315.46331787;2.15686274
315.46331787;2.25490189
315.46734619;2.17647052
315.47143555;2.27450991
315.47555542;2.37254906
315.47555542;2.31372547
315.47964478;2.49019599
315.48400879;2.70588231
315.48782349;2.88235283
315.48782349;2.80392146
315.49191284;3.00000000
315.49600220;3.39215684
315.50012207;2.96078420
315.50421143;3.03921580
315.50833130;3.09803915
315.50833130;2.88235283
315.51239014;2.58823538
315.51647949;2.72549009
315.52059937;2.76470590
315.52059937;2.72549009
315.52471924;2.68627453
315.52877808;2.39215684
315.53289795;2.19607854
315.53289795;2.03921580
315.53698730;1.62745094
315.54110718;1.45098042
315.54516602;1.70588231
315.54931641;1.84313726
315.55340576;2.13725495
315.55340576;2.33333325
315.55746460;2.39215684
315.56152344;2.56862736
315.56567383;2.74509811
315.56567383;2.74509811
315.56973267;2.92156863
315.57385254;3.07843137
315.57797241;3.31372547
315.57797241;3.21568632
315.58203125;3.37254906
315.58615112;3.35294127
315.59027100;2.80392146
315.59432983;2.54901958
315.59844971;2.19607854
315.59844971;2.15686274
315.60250854;2.25490189
315.60665894;1.98039210
315.61071777;1.94117641
315.61071777;2.09803915
315.61480713;2.03921580
315.61889648;1.84313726
315.62301636;1.76470590
315.62301636;1.98039210
315.62707520;2.07843137
315.63119507;2.19607854
315.63531494;2.56862736
315.63940430;2.54901958
315.64349365;2.60784316
315.64349365;2.64705873
315.64758301;2.54901958
315.65170288;2.45098042
315.65588379;2.43137264
315.65588379;2.27450991
315.65988159;2.39215684
315.66397095;2.50980401
315.66806030;2.49019599
315.66806030;2.60784316
315.67218018;2.66666675
315.67633057;2.56862736
315.68035889;2.64705873
315.68444824;2.60784316
315.68856812;2.39215684
315.68856812;2.45098042
315.69265747;2.49019599
315.69674683;2.15686274
315.70083618;1.98039210
315.70083618;1.98039210
315.70492554;1.88235295
315.70901489;1.68627453
315.71313477;1.82352936
315.71313477;1.82352936
315.71722412;1.84313726
315.72140503;1.98039210
315.72546387;2.13725495
315.72955322;2.19607854
315.73364258;2.21568632
315.73364258;2.33333325
315.73770142;2.21568632
315.74182129;2.25490189
315.74594116;2.39215684
315.74594116;2.15686274
315.75000000;2.27450991
315.75408936;2.35294127
315.75820923;2.50980401
315.75820923;2.52941179
315.76229858;2.43137264
315.76641846;2.60784316
315.77047729;2.54901958
315.77456665;2.43137264
315.77865601;2.41176462
315.77865601;2.66666675
315.78277588;2.74509811
315.78683472;2.64705873
315.79098511;2.68627453
315.79098511;2.70588231
315.79504395;2.64705873
315.79913330;2.52941179
315.80331421;2.47058821
315.80331421;2.70588231
315.80734253;2.52941179
315.81143188;2.52941179
315.81552124;2.64705873
315.81964111;2.60784316
315.82373047;2.80392146
315.82373047;3.03921580
315.82781982;2.96078420
315.83190918;2.88235283
315.83602905;3.15686274
315.83602905;3.29411769
315.84014893;2.90196085
315.84417725;3.13725495
315.84829712;3.49019599
315.84829712;3.39215684
315.85238647;2.76470590
315.85659790;2.96078420
315.86059570;2.47058821
315.86468506;2.21568632
315.86877441;2.11764717
315.86877441;2.09803915
315.87289429;2.01960778
315.87698364;2.00000000
315.88110352;2.01960778
315.88110352;2.35294127
315.88519287;2.58823538
315.88934326;2.54901958
315.89337158;2.76470590
315.89337158;2.82352948
315.89746094;2.78431368
315.90158081;2.88235283
315.90570068;2.98039222
315.90972900;3.01960778
315.91384888;2.98039222
315.91384888;3.07843137
315.91793823;3.07843137
315.92202759;3.19607854
315.92614746;3.09803915
315.92614746;3.11764717
315.93023682;3.07843137
315.93429565;2.88235283
315.93844604;2.78431368
315.93844604;2.49019599
315.94250488;2.39215684
315.94659424;2.31372547
315.95071411;2.05882359
315.95480347;2.05882359
315.95895386;2.13725495
315.95895386;2.03921580
315.96298218;2.07843137
315.96707153;2.29411769
315.97119141;2.29411769
315.97119141;2.21568632
315.97537231;2.29411769
315.97940063;2.25490189
315.98348999;2.23529410
315.98348999;2.23529410
315.98757935;2.07843137
315.99169922;2.11764717
315.99581909;2.35294127
315.99987793;2.47058821
316.00396729;2.66666675
316.00396729;2.78431368
316.00805664;2.68627453
316.01211548;2.66666675
316.01632690;2.74509811
316.01632690;2.49019599
316.02032471;2.45098042
316.02447510;2.47058821
316.02856445;2.43137264
316.02856445;2.66666675
316.03268433;2.96078420
316.03680420;2.68627453
316.04089355;2.78431368
316.04495239;2.62745094
316.04904175;2.21568632
316.04904175;2.07843137
316.05313110;1.94117641
316.05718994;2.07843137
316.06130981;2.07843137
316.06130981;1.96078432
316.06542969;2.01960778
316.06945801;1.96078432
316.07363892;1.92156863
316.07363892;2.05882359
316.07775879;2.17647052
316.08178711;2.39215684
316.08590698;2.54901958
316.08999634;2.62745094
316.09408569;2.62745094
316.09408569;2.68627453
316.09817505;2.52941179
316.10232544;2.60784316
316.10644531;2.68627453
316.10644531;2.60784316
316.11047363;2.74509811
316.11456299;2.80392146
316.11865234;2.90196085
316.11865234;2.94117641
316.12280273;2.88235283
316.12686157;2.96078420
316.13098145;2.21568632
316.13504028;2.01960778
316.13922119;1.58823526
316.13922119;1.41176474
316.14331055;1.15686274
316.14733887;1.00000000
316.15145874;1.25490201
316.15145874;1.66666663
316.15554810;2.03921580
316.15963745;2.33333325
316.16375732;2.66666675
316.16375732;2.86274505
316.16781616;2.86274505
316.17190552;2.94117641
316.17602539;2.88235283
316.18011475;2.78431368
316.18423462;2.82352948
316.18423462;2.72549009
316.18832397;2.25490189
316.19238281;2.37254906
316.19650269;2.27450991
316.19650269;1.96078432
316.20059204;2.07843137
316.20468140;2.03921580
316.20880127;1.78431368
316.20880127;2.13725495
316.21289063;2.47058821
316.21697998;2.05882359
316.22109985;2.45098042
316.22521973;2.17647052
316.22943115;1.84313726
316.22943115;1.94117641
316.23336792;2.09803915
316.23742676;2.07843137
316.24157715;2.23529410
316.24157715;2.35294127
316.24563599;2.54901958
316.24972534;2.49019599
316.25387573;2.62745094
316.25387573;2.66666675
316.25793457;2.58823538
316.26205444;2.72549009
316.26620483;2.58823538
316.27026367;2.62745094
316.27438354;2.68627453
316.27438354;2.64705873
316.27841187;2.60784316
316.28250122;2.82352948
316.28662109;2.76470590
316.28662109;2.68627453
316.29074097;2.78431368
316.29476929;2.56862736
316.29891968;2.39215684
316.29891968;2.37254906
316.30300903;2.41176462
316.30712891;2.37254906
316.31118774;2.50980401
316.31530762;2.80392146
316.31939697;2.47058821
316.31939697;2.54901958
316.32348633;2.64705873
316.32754517;2.25490189
316.33169556;1.96078432
316.33169556;2.01960778
316.33575439;1.88235295
316.33990479;1.70588231
316.34396362;1.68627453
316.34396362;1.92156863
316.34805298;1.88235295
316.35217285;1.82352936
316.35641479;1.84313726
316.36032104;1.94117641
316.36447144;2.11764717
316.36447144;2.05882359
316.36853027;2.17647052
316.37265015;2.33333325
316.37673950;2.56862736
316.37673950;2.50980401
316.38082886;2.84313726
316.38494873;3.15686274
316.38909912;2.96078420
316.38909912;3.03921580
316.39309692;3.23529410
316.39718628;3.15686274
316.40130615;2.90196085
316.40542603;3.17647052
316.40951538;3.21568632
316.40951538;3.37254906
316.41360474;3.21568632
316.41769409;3.17647052
316.42181396;3.21568632
316.42181396;2.84313726
316.42587280;2.31372547
316.42999268;2.11764717
316.43408203;1.88235295
316.43408203;1.80392158
316.43829346;1.68627453
316.44232178;1.66666663
316.44638062;2.23529410
316.45046997;2.39215684
316.45458984;2.80392146
316.45458984;3.05882359
316.45867920;3.13725495
316.46273804;3.29411769
316.46685791;3.37254906
316.46685791;3.31372547
316.47094727;3.31372547
316.47506714;3.52941179
316.47915649;3.64705873
316.47915649;3.72549009
316.48324585;3.94117641
316.48733521;3.76470590
316.49145508;3.37254906
316.49554443;2.72549009
316.49972534;2.07843137
316.49972534;1.72549021
316.50372314;1.56862748
316.50781250;1.27450979
316.51193237;1.19607842
316.51193237;1.50980389
316.51602173;1.60784316
316.52008057;1.82352936
316.52426147;2.31372547
316.52426147;2.54901958
316.52832031;2.72549009
316.53240967;2.72549009
316.53649902;2.80392146
316.54061890;2.92156863
316.54467773;3.09803915
316.54467773;3.27450991
316.54879761;3.29411769
316.55288696;3.09803915
316.55700684;3.19607854
316.55700684;3.01960778
316.56106567;2.88235283
316.56515503;2.43137264
316.56930542;2.07843137
316.56930542;2.05882359
316.57336426;2.09803915
316.57745361;1.88235295
316.58157349;1.90196073
316.58563232;2.11764717
316.58978271;2.11764717
316.58978271;2.27450991
316.59384155;2.50980401
316.59799194;2.54901958
316.60205078;2.72549009
316.60205078;2.80392146
316.60632324;2.86274505
316.61019897;2.90196085
316.61434937;2.86274505
316.61434937;2.92156863
316.61840820;2.62745094
316.62252808;2.78431368
316.62661743;2.62745094
316.63070679;2.64705873
316.63482666;2.74509811
316.63482666;2.90196085
316.63900757;2.84313726
316.64300537;2.90196085
316.64715576;2.88235283
316.64715576;2.64705873
316.65118408;2.49019599
316.65530396;2.37254906
316.65939331;2.09803915
316.65939331;2.19607854
316.66348267;2.27450991
316.66760254;2.25490189
316.67169189;2.43137264
316.67578125;2.45098042
316.67990112;2.43137264
316.67990112;2.43137264
316.68395996;2.70588231
316.68804932;2.82352948
316.69216919;2.35294127
316.69216919;2.37254906
316.69622803;2.29411769
316.70034790;1.90196073
316.70446777;1.58823526
316.70446777;1.45098042
316.70855713;1.45098042
316.71264648;1.70588231
316.71673584;1.92156863
316.72085571;2.15686274
316.72497559;2.17647052
316.72497559;2.17647052
316.72900391;2.39215684
316.73312378;2.58823538
316.73724365;2.74509811
316.73724365;2.82352948
316.74133301;3.27450991
316.74545288;3.05882359
316.74951172;2.29411769
316.74951172;2.33333325
316.75360107;2.27450991
316.75769043;1.78431368
316.76177979;1.92156863
316.76589966;2.33333325
316.76998901;2.33333325
316.76998901;2.60784316
316.77410889;2.68627453
316.77813721;2.49019599
316.78231812;2.64705873
316.78231812;2.74509811
316.78634644;2.62745094
316.79046631;2.78431368
316.79458618;2.88235283
316.79458618;2.70588231
316.79867554;2.72549009
316.80276489;2.92156863
316.80685425;2.52941179
316.81094360;2.66666675
316.81506348;2.72549009
316.81506348;2.43137264
316.81912231;2.58823538
316.82324219;2.72549009
316.82733154;2.13725495
316.82733154;2.31372547
316.83145142;2.09803915
316.83557129;1.82352936
316.83966064;1.76470590
316.83966064;1.68627453
316.84381104;1.70588231
316.84780884;1.76470590
316.85192871;1.98039210
316.85617065;2.25490189
316.86010742;2.25490189
316.86010742;2.52941179
316.86422729;2.76470590
316.86831665;2.80392146
316.87243652;2.84313726
316.87243652;2.98039222
316.87649536;2.72549009
316.88058472;2.74509811
316.88467407;2.96078420
316.88467407;2.90196085
316.88888550;2.92156863
316.89288330;2.90196085
316.89700317;2.84313726
316.90106201;2.70588231
316.90521240;2.29411769
316.90521240;2.07843137
316.90933228;2.00000000
316.91336060;1.88235295
316.91744995;1.90196073
316.91744995;1.70588231
316.92160034;1.82352936
316.92562866;1.88235295
316.92974854;2.01960778
316.92974854;2.37254906
316.93383789;2.64705873
316.93798828;2.49019599
316.94204712;2.64705873
316.94613647;2.31372547
316.95025635;1.98039210
316.95025635;1.82352936
316.95431519;1.88235295
316.95843506;1.76470590
316.96252441;2.01960778
316.96252441;2.31372547
316.96661377;2.25490189
316.97070313;2.50980401
316.97485352;2.58823538
316.97485352;2.64705873
316.97891235;2.37254906
316.98303223;2.37254906
316.98709106;1.92156863
316.99121094;1.78431368
316.99530029;1.88235295
316.99530029;1.96078432
316.99938965;2.17647052
317.00344849;2.60784316
317.00759888;2.80392146
317.00759888;3.17647052
317.01168823;3.33333325
317.01577759;3.21568632
317.01986694;3.17647052
317.01986694;2.98039222
317.02398682;2.78431368
317.02807617;2.60784316
317.03216553;2.82352948
317.03622437;2.88235283
317.04037476;2.86274505
317.04037476;3.07843137
317.04443359;3.21568632
317.04852295;2.94117641
317.05264282;3.00000000
317.05264282;3.00000000
317.05673218;2.86274505
317.06079102;2.70588231
317.06494141;2.70588231
317.06494141;2.52941179
317.06903076;2.37254906
317.07312012;2.41176462
317.07720947;2.58823538
317.08129883;2.52941179
317.08541870;2.82352948
317.08541870;2.60784316
317.08953857;2.35294127
317.09359741;2.09803915
317.09771729;2.05882359
317.09771729;2.35294127
317.10180664;2.94117641
317.10607910;2.68627453
317.11007690;2.72549009
317.11007690;2.90196085
317.11407471;2.66666675
317.11819458;2.25490189
317.12234497;1.84313726
317.12637329;1.84313726
317.13049316;2.00000000
317.13049316;2.19607854
317.13458252;2.49019599
317.13876343;2.43137264
317.14276123;2.74509811
317.14276123;2.94117641
317.14685059;2.80392146
317.15093994;2.86274505
317.15509033;2.90196085
317.15509033;2.78431368
317.15914917;2.84313726
317.16323853;2.88235283
317.16732788;2.74509811
317.17144775;2.60784316
317.17553711;2.86274505
317.17553711;2.43137264
317.17962646;2.19607854
317.18377686;2.45098042
317.18786621;2.13725495
317.18786621;2.31372547
317.19192505;2.33333325
317.19601440;2.03921580
317.20013428;2.09803915
317.20013428;1.92156863
317.20419312;1.92156863
317.20831299;1.76470590
317.21240234;2.01960778
317.21649170;2.03921580
317.22061157;2.17647052
317.22061157;2.25490189
317.22473145;2.37254906
317.22885132;2.43137264
317.23297119;2.41176462
317.23297119;2.56862736
317.23699951;2.50980401
317.24108887;2.56862736
317.24520874;2.68627453
317.24520874;2.64705873
317.24932861;2.58823538
317.25335693;2.25490189
317.25747681;2.39215684
317.26153564;2.43137264
317.26565552;2.56862736
317.26565552;2.58823538
317.26974487;2.92156863
317.27386475;2.98039222
317.27795410;2.76470590
317.27795410;2.74509811
317.28204346;2.74509811
317.28610229;2.52941179
317.29025269;2.37254906
317.29025269;2.37254906
317.29431152;2.35294127
317.29840088;2.07843137
317.30252075;2.11764717
317.30661011;2.09803915
317.31069946;2.11764717
317.31069946;2.07843137
317.31481934;2.19607854
317.31887817;2.13725495
317.32302856;2.35294127
317.32302856;2.31372547
317.32708740;2.21568632
317.33120728;2.31372547
317.33532715;2.41176462
317.33532715;2.21568632
317.33938599;2.19607854
317.34347534;2.39215684
317.34759521;2.35294127
317.35165405;2.41176462
317.35595703;2.60784316
317.35595703;2.39215684
317.35986328;2.49019599
317.36395264;2.56862736
317.36807251;2.52941179
317.36807251;2.54901958
317.37216187;2.49019599
317.37625122;2.54901958
317.38037109;2.52941179
317.38037109;2.72549009
317.38442993;3.07843137
317.38854980;2.66666675
317.39270020;2.64705873
317.39672852;2.58823538
317.40197754;2.39215684
317.40197754;1.82352936
317.40490723;2.09803915
317.40902710;2.05882359
317.41314697;2.01960778
317.41314697;2.11764717
317.41720581;2.15686274
317.42129517;2.17647052
317.42541504;2.35294127
317.42541504;2.33333325
317.42950439;2.49019599
317.43362427;2.62745094
317.43768311;2.74509811
317.44180298;2.98039222
317.44589233;3.09803915
317.44589233;2.98039222
317.44998169;2.86274505
317.45404053;2.86274505
317.45819092;2.72549009
317.45819092;2.68627453
317.46231079;2.70588231
317.46636963;2.58823538
317.47048950;2.64705873
317.47048950;2.66666675
317.47457886;2.60784316
317.47866821;2.60784316
317.48275757;2.82352948
317.48684692;2.72549009
317.49096680;2.58823538
317.49096680;2.54901958
317.49505615;2.11764717
317.49914551;1.76470590
317.50323486;1.78431368
317.50323486;1.96078432
317.50732422;1.86274505
317.51138306;2.35294127
317.51553345;2.54901958
317.51553345;2.50980401
317.51962280;2.50980401
317.52371216;2.41176462
317.52780151;2.19607854
317.53189087;2.21568632
317.53601074;2.27450991
317.53601074;2.23529410
317.54013062;2.29411769
317.54418945;2.35294127
317.54830933;2.13725495
317.54830933;2.13725495
317.55239868;2.15686274
317.55648804;2.25490189
317.56060791;2.19607854
317.56060791;2.37254906
317.56469727;2.58823538
317.56878662;2.66666675
317.57287598;2.84313726
317.57696533;3.05882359
317.58108521;2.31372547
317.58108521;2.54901958
317.58517456;2.01960778
317.58932495;1.52941179
317.59335327;1.43137252
317.59335327;1.43137252
317.59747314;1.29411769
317.60153198;1.74509799
317.60583496;2.21568632
317.60583496;2.29411769
317.61041260;2.68627453
317.61383057;2.94117641
317.61795044;3.09803915
317.62203979;3.25490189
317.62612915;3.29411769
317.62612915;3.11764717
317.63018799;3.09803915
317.63430786;3.15686274
317.63851929;2.92156863
317.63851929;2.90196085
317.64251709;2.96078420
317.64663696;2.92156863
317.65072632;3.11764717
317.65072632;3.39215684
317.65481567;3.47058821
317.65893555;3.39215684
317.66302490;3.23529410
317.66708374;2.58823538
317.67120361;2.27450991
317.67120361;2.03921580
317.67535400;2.03921580
317.67938232;1.94117641
317.68350220;2.39215684
317.68350220;2.49019599
317.68756104;2.76470590
317.69168091;2.86274505
317.69580078;2.52941179
317.69580078;2.47058821
317.69985962;2.47058821
317.70397949;2.09803915
317.70806885;1.86274505
317.71215820;1.84313726
317.71630859;2.09803915
317.71630859;2.03921580
317.72033691;2.31372547
317.72445679;2.54901958
317.72854614;2.50980401
317.72854614;2.74509811
317.73263550;2.94117641
317.73889160;3.00000000
317.74084473;3.07843137
317.74084473;3.29411769
317.74493408;3.68627453
317.74902344;3.47058821
317.75311279;3.31372547
317.75720215;3.13725495
317.76132202;2.86274505
317.76132202;2.60784316
317.76541138;2.07843137
317.76947021;1.98039210
317.77362061;1.90196073
317.77362061;2.07843137
317.77767944;1.90196073
317.78179932;1.90196073
317.78588867;1.86274505
317.78588867;1.60784316
317.79010010;1.60784316
317.79412842;1.82352936
317.79818726;2.00000000
317.80230713;2.33333325
317.80639648;2.50980401
317.80639648;2.43137264
317.81045532;2.54901958
317.81457520;2.62745094
317.81866455;2.35294127
317.81866455;2.47058821
317.82275391;2.56862736
317.82681274;2.05882359
317.83096313;1.98039210
317.83096313;1.88235295
317.83502197;1.86274505
317.83917236;1.76470590
317.84323120;1.96078432
317.84732056;2.01960778
317.85144043;2.11764717
317.85144043;2.33333325
317.85552979;2.41176462
317.85961914;2.27450991
317.86376953;2.62745094
317.86376953;2.88235283
317.86782837;2.92156863
317.87191772;3.13725495
317.87600708;3.17647052
317.87600708;3.05882359
317.88012695;3.00000000
317.88418579;3.03921580
317.88830566;2.52941179
317.89239502;2.39215684
317.89648438;2.45098042
317.89648438;2.50980401
317.90057373;2.41176462
317.90463257;2.43137264
317.90884399;2.45098042
317.90884399;2.58823538
317.91287231;2.80392146
317.91702271;2.37254906
317.92111206;2.37254906
317.92111206;2.47058821
317.92517090;2.29411769
317.92932129;1.94117641
317.93334961;1.92156863
317.93746948;1.86274505
317.94155884;2.05882359
317.94155884;2.47058821
317.94564819;2.47058821
317.94973755;2.52941179
317.95440674;2.76470590
317.95440674;2.88235283
317.95797729;2.58823538
317.96200562;2.68627453
317.96612549;2.80392146
317.96612549;2.64705873
317.97018433;2.76470590
317.97433472;2.72549009
317.97842407;2.80392146
317.98251343;2.90196085
317.98660278;2.64705873
317.98660278;2.47058821
317.99072266;2.37254906
317.99481201;2.33333325
317.99893188;1.92156863
317.99893188;1.86274505
318.00299072;2.01960778
318.00708008;1.88235295
318.01119995;1.94117641
318.01119995;2.07843137
318.01531982;2.31372547
318.01937866;2.25490189
318.02352905;2.60784316
318.02764893;2.41176462
318.03167725;2.47058821
318.03167725;2.56862736
318.03576660;2.31372547
318.03988647;2.35294127
318.04397583;2.54901958
318.04397583;2.56862736
318.04806519;2.58823538
318.05212402;2.90196085
318.05630493;3.07843137
318.05630493;2.58823538
318.06033325;3.00000000
318.06442261;2.84313726
318.06854248;2.13725495
318.07263184;2.11764717
318.07672119;2.29411769
318.07672119;2.29411769
318.08081055;2.66666675
318.08493042;2.88235283
318.08905029;2.92156863
318.08905029;2.78431368
318.09310913;2.84313726
318.09719849;2.86274505
318.10140991;2.76470590
318.10140991;2.76470590
318.10543823;2.80392146
318.10958862;2.80392146
318.11361694;2.76470590
318.11767578;2.50980401
318.12179565;2.43137264
318.12179565;2.31372547
318.12588501;2.09803915
318.12997437;2.11764717
318.13409424;2.33333325
318.13409424;2.72549009
318.13821411;2.70588231
318.14230347;2.45098042
318.14642334;2.76470590
318.14642334;2.43137264
318.15045166;1.94117641
318.15457153;1.49019611
318.15869141;1.25490201
318.16275024;1.33333337
318.16687012;1.11764705
318.16687012;1.35294116
318.17098999;1.62745094
318.17504883;2.05882359
318.17913818;2.03921580
318.17913818;2.01960778
318.18322754;2.39215684
318.18728638;2.21568632
318.19143677;2.09803915
318.19143677;2.07843137
318.19549561;2.03921580
318.19961548;2.05882359
318.20370483;2.78431368
318.20782471;2.80392146
318.21191406;2.80392146
318.21191406;2.82352948
318.21600342;2.60784316
318.22012329;2.43137264
318.22424316;2.03921580
318.22424316;2.00000000
318.22839355;2.66666675
318.23245239;2.43137264
318.23654175;2.49019599
318.23654175;3.23529410
318.24060059;3.41176462
318.24468994;3.07843137
318.24880981;2.80392146
318.25286865;2.88235283
318.25704956;2.82352948
318.25704956;2.96078420
318.26107788;3.05882359
318.26516724;3.19607854
318.26931763;3.13725495
318.26931763;3.17647052
318.27340698;3.13725495
318.27746582;3.05882359
318.28155518;3.23529410
318.28155518;3.07843137
318.28567505;2.94117641
318.28979492;2.94117641
318.29385376;2.60784316
318.29794312;2.39215684
318.30203247;2.37254906
318.30203247;2.23529410
318.30612183;2.21568632
318.31018066;2.23529410
318.31433105;2.35294127
318.31433105;2.39215684
318.31842041;2.23529410
318.32254028;2.49019599
318.32662964;2.70588231
318.32662964;2.37254906
318.33071899;2.29411769
318.33480835;2.47058821
318.33895874;2.25490189
318.34298706;2.49019599
318.34710693;2.35294127
318.34710693;2.35294127
318.35119629;2.45098042
318.35534668;2.43137264
318.35940552;2.35294127
318.35940552;2.41176462
318.36346436;2.41176462
318.36755371;2.21568632
318.37170410;2.23529410
318.37170410;2.29411769
318.37576294;2.23529410
318.37988281;2.19607854
318.38397217;2.13725495
318.38806152;2.01960778
318.39218140;1.94117641
318.39218140;1.94117641
318.39624023;1.84313726
318.40032959;2.01960778
318.40447998;2.27450991
318.40447998;2.33333325
318.40853882;2.64705873
318.41262817;2.80392146
318.41671753;2.58823538
318.41671753;2.74509811
318.42080688;2.82352948
318.42498779;2.78431368
318.42904663;2.27450991
318.43313599;2.50980401
318.43722534;2.31372547
318.43722534;2.00000000
318.44134521;2.03921580
318.44537354;2.09803915
318.44952393;2.01960778
318.44952393;2.31372547
318.45358276;2.56862736
318.45770264;2.13725495
318.46179199;2.52941179
318.46179199;2.47058821
318.46588135;2.29411769
318.47000122;2.19607854
318.47412109;2.80392146
318.47817993;2.70588231
318.48233032;2.76470590
318.48233032;2.96078420
318.48635864;3.19607854
318.49047852;3.09803915
318.49456787;2.84313726
318.49456787;3.17647052
318.49865723;3.33333325
318.50277710;3.21568632
318.50686646;3.31372547
318.50686646;3.29411769
318.51095581;3.03921580
318.51501465;2.96078420
318.51913452;2.92156863
318.52325439;2.78431368
318.52740479;2.49019599
318.52740479;2.45098042
318.53143311;2.56862736
318.53552246;2.13725495
318.53967285;1.82352936
318.53967285;1.80392158
318.54370117;1.68627453
318.54782104;1.62745094
318.55191040;1.84313726
318.55191040;1.98039210
318.55603027;2.15686274
318.56011963;2.31372547
318.56420898;2.78431368
318.56829834;2.76470590
318.57241821;2.90196085
318.57241821;3.25490189
318.57647705;3.37254906
318.58053589;3.37254906
318.58468628;3.66666675
318.58468628;3.52941179
318.58877563;3.03921580
318.59295654;3.09803915
318.59701538;3.01960778
318.59701538;2.33333325
318.60107422;2.41176462
318.60516357;2.49019599
318.60931396;2.15686274
318.61337280;2.17647052
318.61746216;2.05882359
318.61746216;1.98039210
318.62155151;2.13725495
318.62564087;2.11764717
318.62976074;2.13725495
318.62976074;2.11764717
318.63385010;2.27450991
318.63787842;2.29411769
318.64205933;2.43137264
318.64205933;2.50980401
318.64611816;2.43137264
318.65023804;2.41176462
318.65435791;2.45098042
318.65841675;2.39215684
318.66250610;2.58823538
318.66250610;2.64705873
318.66662598;2.52941179
318.67071533;2.58823538
318.67483521;2.76470590
318.67483521;2.66666675
318.67889404;2.70588231
318.68298340;2.94117641
318.68707275;2.64705873
318.68707275;2.68627453
318.69119263;2.47058821
318.69531250;2.31372547
318.69940186;2.01960778
318.69940186;1.86274505
318.70346069;1.84313726
318.70761108;1.72549021
318.70761108;1.82352936
318.71166992;1.92156863
318.71575928;1.94117641
318.71984863;2.05882359
318.71984863;2.43137264
318.72396851;2.58823538
318.72802734;2.58823538
318.73217773;2.74509811
318.73217773;3.03921580
318.73623657;2.82352948
318.74032593;2.88235283
318.74450684;2.94117641
318.74450684;3.03921580
318.74856567;3.21568632
318.75265503;3.21568632
318.75265503;2.86274505
318.75671387;2.80392146
318.76080322;2.60784316
318.76495361;2.01960778
318.76495361;1.54901958
318.76901245;1.37254906
318.77313232;1.37254906
318.77722168;1.62745094
318.77722168;1.60784316
318.78131104;1.92156863
318.78543091;2.11764717
318.78955078;2.15686274
318.79357910;2.39215684
318.79772949;2.17647052
318.79772949;2.29411769
318.80178833;2.56862736
318.80584717;2.54901958
318.80996704;2.49019599
318.80996704;2.56862736
318.81405640;2.72549009
318.81817627;2.66666675
318.82232666;2.90196085
318.82232666;2.84313726
318.82641602;2.62745094
318.83047485;2.64705873
318.83456421;3.01960778
318.83868408;2.19607854
318.84277344;2.31372547
318.84277344;2.45098042
318.84683228;1.86274505
318.85092163;1.52941179
318.85507202;1.50980389
318.85507202;1.25490201
318.85913086;1.58823526
318.86322021;1.84313726
318.86734009;1.86274505
318.86734009;2.09803915
318.87139893;2.19607854
318.87548828;2.50980401
318.87963867;2.52941179
318.87963867;2.90196085
318.88369751;3.19607854
318.88781738;3.37254906
318.88781738;3.45098042
318.89190674;3.43137264
318.89602661;3.37254906
318.90011597;3.13725495
318.90011597;3.01960778
318.90420532;2.86274505
318.90832520;2.68627453
318.91241455;2.86274505
318.91241455;2.96078420
318.91647339;2.76470590
318.92062378;3.13725495
318.92471313;3.41176462
318.92471313;3.29411769
318.92877197;2.41176462
318.93289185;2.41176462
318.93289185;2.41176462
318.93707275;1.86274505
318.94107056;1.64705884
318.94515991;1.66666663
318.94515991;1.78431368
318.94931030;1.90196073
318.95336914;2.07843137
318.95745850;2.31372547
318.95745850;2.49019599
318.96154785;2.66666675
318.96563721;2.86274505
318.96975708;2.74509811
318.96975708;2.80392146
318.97387695;2.94117641
318.97793579;2.86274505
318.97793579;2.80392146
318.98202515;2.90196085
318.98611450;2.98039222
318.99023438;2.84313726
318.99023438;2.74509811
318.99432373;2.84313726
318.99841309;2.66666675
319.00250244;2.62745094
319.00250244;2.66666675
319.00662231;2.68627453
319.01071167;2.76470590
319.01489258;2.68627453
319.01489258;2.84313726
319.01889038;2.86274505
319.02304077;2.68627453
319.02304077;2.41176462
319.02709961;2.03921580
319.03118896;1.92156863
319.03530884;1.92156863
319.03530884;1.64705884
319.03942871;1.76470590
319.04345703;1.92156863
319.04760742;2.07843137
319.04760742;2.17647052
319.05166626;2.15686274
319.05578613;2.21568632
319.05987549;2.13725495
319.05987549;2.31372547
319.06396484;2.37254906
319.06805420;2.25490189
319.06805420;2.39215684
319.07214355;2.39215684
319.07623291;2.45098042
319.08035278;2.49019599
319.08035278;2.58823538
319.08444214;2.68627453
319.08853149;2.58823538
319.09265137;2.62745094
319.09265137;2.68627453
319.09671021;2.54901958
319.10079956;2.74509811
319.10494995;2.92156863
319.10494995;2.50980401
319.10900879;2.54901958
319.11312866;2.47058821
319.11312866;2.33333325
319.11721802;1.88235295
319.12130737;2.00000000
319.12542725;1.98039210
319.12542725;1.80392158
319.12948608;1.98039210
319.13357544;2.01960778
319.13769531;1.88235295
319.13769531;1.78431368
319.14178467;2.01960778
319.14587402;2.00000000
319.14999390;1.86274505
319.14999390;1.98039210
319.15408325;2.21568632
319.15820313;2.25490189
319.15820313;2.58823538
319.16235352;2.66666675
319.16638184;2.64705873
319.17056274;2.56862736
319.17056274;2.43137264
319.17459106;2.07843137
319.17861938;1.80392158
319.18276978;1.84313726
319.18276978;1.98039210
319.18682861;2.07843137
319.19094849;2.11764717
319.19506836;2.35294127
319.19506836;2.45098042
319.19912720;2.58823538
319.20324707;3.00000000
319.20324707;2.82352948
319.20736694;3.01960778
319.21139526;3.03921580
319.21554565;2.86274505
319.21554565;2.62745094
319.21960449;2.52941179
319.22372437;2.41176462
319.22793579;2.09803915
319.22793579;2.05882359
319.23199463;2.21568632
319.23602295;2.23529410
319.24011230;2.11764717
319.24011230;2.27450991
319.24420166;2.56862736
319.24832153;2.50980401
319.24832153;2.60784316
319.25238037;2.78431368
319.25650024;2.64705873
319.26058960;2.41176462
319.26058960;2.37254906
319.26467896;2.56862736
319.26876831;2.37254906
319.27291870;2.29411769
319.27291870;2.41176462
319.27697754;2.52941179
319.28106689;2.92156863
319.28515625;2.76470590
319.28515625;2.70588231
319.28933716;2.94117641
319.29336548;2.92156863
319.29336548;2.88235283
319.29742432;2.45098042
319.30154419;2.37254906
319.30566406;2.62745094
319.30566406;2.54901958
319.30972290;2.86274505
319.31384277;3.29411769
319.31793213;3.15686274
319.31793213;3.13725495
319.32205200;3.33333325
319.32608032;2.96078420
319.33023071;2.50980401
319.33023071;2.31372547
319.33432007;2.23529410
319.33853149;2.05882359
319.33853149;2.25490189
319.34249878;2.41176462
319.34655762;2.41176462
319.35070801;2.54901958
319.35070801;2.82352948
319.35479736;3.01960778
319.35888672;2.88235283
319.36300659;3.21568632
319.36300659;3.35294127
319.36709595;3.15686274
319.37118530;3.35294127
319.37530518;3.56862736
319.37530518;3.01960778
319.37933350;2.94117641
319.38348389;2.90196085
319.38348389;2.37254906
319.38757324;2.01960778
319.39166260;1.76470590
319.39575195;1.74509799
319.39575195;1.72549021
319.39987183;1.90196073
319.40393066;2.13725495
319.40808105;2.11764717
319.40808105;2.27450991
319.41213989;2.37254906
319.41622925;2.50980401
319.42037964;2.37254906
319.42037964;2.50980401
319.42443848;2.54901958
319.42852783;2.33333325
319.42852783;2.35294127
319.43264771;2.37254906
319.43670654;2.21568632
319.44085693;2.27450991
319.44085693;2.35294127
319.44491577;2.39215684
319.44900513;2.49019599
319.45312500;2.41176462
319.45312500;2.43137264
319.45721436;2.39215684
319.46130371;2.56862736
319.46539307;2.78431368
319.46539307;2.84313726
319.46948242;2.66666675
319.47363281;2.58823538
319.47363281;2.54901958
319.47769165;2.07843137
319.48178101;2.05882359
319.48590088;2.11764717
319.48590088;1.47058821
319.48999023;1.66666663
319.49404907;2.13725495
319.49816895;1.82352936
319.49816895;1.47058821
319.50231934;1.45098042
319.50637817;1.49019611
319.51049805;1.66666663
319.51049805;1.88235295
319.51452637;2.07843137
319.51867676;2.17647052
319.51867676;2.54901958
319.52273560;2.80392146
319.52682495;2.76470590
319.53097534;2.92156863
319.53097534;3.09803915
319.53503418;3.07843137
319.53915405;3.29411769
319.54324341;3.05882359
319.54324341;3.09803915
319.54733276;3.23529410
319.55142212;2.98039222
319.55554199;2.90196085
319.55554199;2.82352948
319.55960083;2.76470590
319.56372070;2.88235283
319.56372070;3.09803915
319.56781006;2.96078420
319.57186890;2.62745094
319.57601929;2.96078420
319.57601929;2.70588231
319.58007813;2.50980401
319.58419800;2.49019599
319.58834839;2.62745094
319.58834839;2.37254906
319.59237671;2.90196085
319.59649658;2.94117641
319.60058594;2.35294127
319.60058594;2.43137264
319.60467529;2.09803915
319.60879517;1.60784316
319.60879517;1.58823526
319.61285400;1.66666663
319.61694336;1.64705884
319.62109375;1.98039210
319.62109375;2.23529410
319.62524414;2.27450991
319.62930298;2.41176462
319.63336182;2.43137264
319.63336182;2.54901958
319.63742065;2.39215684
319.64154053;2.52941179
319.64566040;2.60784316
319.64566040;2.50980401
319.64974976;2.68627453
319.65386963;2.80392146
319.65386963;2.80392146
319.65795898;2.88235283
319.66201782;3.07843137
319.66613770;3.23529410
319.66613770;3.00000000
319.67022705;2.80392146
319.67431641;2.86274505
319.67840576;2.66666675
319.67840576;2.47058821
319.68252563;2.39215684
319.68661499;2.35294127
319.69070435;2.64705873
319.69070435;2.62745094
319.69479370;2.56862736
319.69891357;2.45098042
319.69891357;2.56862736
319.70300293;2.41176462
319.70709229;2.05882359
319.71118164;2.11764717
319.71118164;2.21568632
319.71530151;2.29411769
319.71936035;2.37254906
319.72351074;2.54901958
319.72351074;2.54901958
319.72756958;2.52941179
319.73165894;2.54901958
319.73583984;2.66666675
319.73583984;2.54901958
319.73983765;2.64705873
319.74398804;2.68627453
319.74398804;2.80392146
319.74804688;2.94117641
319.75219727;2.68627453
319.75631714;2.74509811
319.75631714;2.62745094
319.76034546;2.45098042
319.76443481;2.31372547
319.76855469;1.86274505
319.76855469;1.80392158
319.77267456;1.92156863
319.77673340;1.82352936
319.78085327;1.90196073
319.78085327;2.25490189
319.78491211;2.52941179
319.78903198;2.17647052
319.78903198;2.50980401
319.79312134;2.72549009
319.79718018;2.33333325
319.80130005;2.15686274
319.80130005;2.17647052
319.80538940;1.94117641
319.80947876;1.90196073
319.81362915;1.92156863
319.81362915;1.68627453
319.81768799;1.88235295
319.82177734;2.54901958
319.82589722;2.54901958
319.82589722;2.41176462
319.82998657;2.74509811
319.83407593;2.70588231
319.83407593;2.39215684
319.83819580;2.25490189
319.84231567;2.37254906
319.84634399;2.54901958
319.84634399;2.72549009
319.85046387;2.86274505
319.85458374;2.86274505
319.85867310;2.84313726
319.85867310;2.70588231
319.86273193;2.47058821
319.86682129;2.23529410
319.87097168;2.54901958
319.87097168;2.92156863
319.87503052;2.43137264
319.87915039;2.62745094
319.87915039;2.64705873
319.88323975;2.41176462
319.88735962;1.27450979
319.89144897;1.11764705
319.89144897;1.56862748
319.89550781;1.39215684
319.89959717;1.78431368
319.90374756;2.33333325
319.90374756;2.74509811
319.90786743;2.92156863
319.91186523;3.09803915
319.91601563;3.35294127
319.91601563;3.35294127
319.92007446;3.45098042
319.92422485;3.50980401
319.92422485;3.41176462
319.92831421;3.39215684
319.93240356;3.27450991
319.93655396;3.11764717
319.93655396;3.00000000
319.94058228;3.09803915
319.94464111;3.11764717
319.94879150;3.01960778
319.94879150;3.09803915
319.95285034;3.15686274
319.95700073;2.92156863
319.96109009;3.03921580
319.96109009;3.13725495
319.96517944;2.92156863
319.96929932;2.84313726
319.96929932;2.82352948
319.97335815;2.84313726
319.97741699;2.54901958
319.98156738;2.50980401
319.98156738;2.64705873
319.98562622;2.70588231
319.98974609;2.84313726
319.99383545;3.09803915
319.99383545;3.15686274
319.99792480;3.17647052
320.00201416;3.35294127
320.00613403;3.05882359
320.00613403;2.82352948
320.01022339;2.54901958
320.01434326;2.25490189
320.01434326;1.98039210
320.01840210;1.88235295
320.02252197;1.84313726
320.02661133;1.84313726
320.02661133;1.76470590
320.03070068;1.58823526
320.03479004;1.74509799
320.03894043;1.58823526
320.03894043;1.50980389
320.04299927;1.41176474
320.04708862;1.29411769
320.05117798;1.35294116
320.05117798;1.33333337
320.05529785;1.37254906
320.05938721;1.33333337
320.05938721;1.52941179
320.06347656;1.76470590
320.06756592;1.74509799
320.07165527;1.76470590
320.07165527;2.00000000
320.07577515;2.17647052
320.07986450;2.43137264
320.08398438;2.23529410
320.08398438;2.15686274
320.08810425;2.43137264
320.09213257;2.45098042
320.09631348;2.19607854
320.09631348;1.84313726
320.10034180;1.76470590
320.10446167;1.84313726
320.10446167;1.72549021
320.10855103;0.94117647
320.11257935;1.41176474
320.11672974;1.50980389
320.11672974;1.37254906
320.12081909;1.84313726
320.12490845;2.29411769
320.12899780;2.54901958
320.12899780;2.96078420
320.13311768;3.23529410
320.13717651;3.31372547
320.14132690;3.39215684
320.14132690;3.45098042
320.14538574;3.39215684
320.14950562;3.29411769
320.14950562;3.27450991
320.15365601;3.31372547
320.15771484;3.15686274
320.16180420;3.41176462
320.16180420;3.47058821
320.16589355;3.50980401
320.16995239;3.72549009
320.17410278;3.43137264
320.17410278;3.86274505
320.17816162;4.01960802
320.18231201;3.80392146
320.18637085;2.62745094
320.18637085;2.88235283
320.19046021;2.01960778
320.19458008;0.86274511
320.19458008;0.60784316
320.19863892;0.60784316
320.20272827;0.90196079
320.20687866;1.33333337
320.20687866;2.19607854
320.21093750;2.92156863
320.21502686;3.49019599
320.21914673;3.37254906
320.21914673;3.64705873
320.22326660;3.90196085
320.22738647;3.66666675
320.23150635;3.74509811
320.23150635;3.72549009
320.23574829;3.68627453
320.23962402;3.50980401
320.23962402;3.50980401
320.24371338;3.37254906
320.24780273;3.11764717
320.25201416;3.19607854
320.25201416;3.33333325
320.25598145;3.21568632
320.26010132;3.37254906
320.26419067;3.33333325
320.26419067;2.90196085
320.26831055;2.37254906
320.27243042;1.96078432
320.27648926;1.56862748
320.27648926;1.27450979
320.28057861;1.43137252
320.28469849;1.92156863
320.28469849;2.52941179
320.28878784;2.62745094
320.29287720;2.70588231
320.29696655;3.03921580
320.29696655;2.96078420
320.30105591;2.78431368
320.30511475;2.84313726
320.30932617;2.72549009
320.30932617;2.84313726
320.31335449;2.94117641
320.31744385;2.76470590
320.32156372;2.70588231
320.32156372;2.78431368
320.32565308;2.72549009
320.32974243;2.62745094
320.32974243;2.62745094
320.33383179;2.76470590
320.33798218;2.41176462
320.34204102;2.50980401
320.34204102;2.41176462
320.34609985;2.13725495
320.35025024;2.03921580
320.35430908;1.96078432
320.35430908;1.82352936
320.35842896;1.78431368
320.36251831;1.80392158
320.36660767;1.70588231
320.36660767;1.60784316
320.37069702;1.60784316
320.37481689;1.80392158
320.37481689;1.78431368
320.37887573;2.21568632
320.38299561;2.19607854
320.38708496;2.25490189
320.38708496;2.29411769
320.39120483;2.43137264
320.39532471;2.39215684
320.39938354;1.80392158
320.39938354;1.88235295
320.40505981;1.58823526
320.40756226;1.17647064
320.41168213;0.92156863
320.41168213;0.74509805
320.41577148;0.54901963
320.41986084;0.66666669
320.41986084;1.09803927
320.42395020;1.25490201
320.42803955;1.25490201
320.43215942;1.19607842
320.43215942;1.82352936
320.43621826;1.78431368
320.44033813;1.96078432
320.44442749;2.49019599
320.44442749;2.64705873
320.44851685;2.84313726
320.45263672;2.96078420
320.45672607;2.98039222
320.45672607;2.90196085
320.46081543;3.03921580
320.46493530;3.25490189
320.46493530;2.74509811
320.46899414;2.96078420
320.47311401;2.74509811
320.47720337;1.96078432
320.47720337;2.25490189
320.48132324;2.11764717
320.48538208;1.68627453
320.48953247;1.98039210
320.48953247;1.90196073
320.49359131;2.01960778
320.49768066;1.78431368
320.50180054;1.86274505
320.50180054;1.96078432
320.50588989;1.82352936
320.50997925;1.90196073
320.50997925;1.76470590
320.51406860;1.70588231
320.51815796;2.11764717
320.52233887;2.05882359
320.52233887;2.66666675
320.52630615;2.82352948
320.53045654;3.37254906
320.53454590;3.54901958
320.53454590;3.49019599
320.53869629;3.62745094
320.54272461;3.56862736
320.54687500;3.23529410
320.54687500;2.96078420
320.55093384;2.58823538
320.55505371;2.78431368
320.55505371;2.56862736
320.55911255;2.47058821
320.56320190;2.58823538
320.56732178;2.66666675
320.56732178;2.74509811
320.57141113;2.84313726
320.57553101;2.96078420
320.57962036;2.90196085
320.57962036;2.96078420
320.58370972;3.07843137
320.58789063;3.11764717
320.59191895;3.37254906
320.59191895;3.33333325
320.59597778;3.27450991
320.60012817;3.33333325
320.60012817;3.07843137
320.60418701;2.68627453
320.60830688;2.29411769
320.61239624;2.00000000
320.61239624;1.82352936
320.61648560;1.64705884
320.62054443;1.92156863
320.62469482;2.29411769
320.62469482;2.11764717
320.62875366;2.29411769
320.63287354;2.47058821
320.63699341;2.45098042
320.63699341;2.31372547
320.64105225;2.52941179
320.64517212;2.45098042
320.64517212;2.33333325
320.64932251;2.41176462
320.65338135;2.50980401
320.65774536;2.33333325
320.65774536;2.31372547
320.66152954;2.39215684
320.66561890;2.27450991
320.66973877;2.37254906
320.66973877;2.37254906
320.67385864;2.49019599
320.67791748;2.39215684
320.68203735;2.54901958
320.68203735;2.66666675
320.68609619;2.54901958
320.69024658;2.52941179
320.69024658;2.54901958
320.69430542;2.64705873
320.69839478;2.76470590
320.70251465;2.49019599
320.70251465;2.43137264
320.70660400;2.45098042
320.71069336;2.29411769
320.71481323;2.15686274
320.71481323;1.98039210
320.71890259;2.19607854
320.72302246;2.31372547
320.72708130;2.39215684
320.72708130;2.58823538
320.73120117;2.60784316
320.73532104;2.68627453
320.73532104;2.52941179
320.73974609;2.64705873
320.74346924;2.70588231
320.74758911;2.66666675
320.74758911;2.64705873
320.75167847;2.72549009
320.75570679;2.58823538
320.75985718;2.43137264
320.75985718;2.82352948
320.76394653;2.96078420
320.76803589;2.88235283
320.77218628;2.43137264
320.77218628;2.70588231
320.77624512;2.60784316
320.78033447;2.23529410
320.78033447;1.92156863
320.78442383;1.84313726
320.78851318;2.01960778
320.79278564;2.19607854
320.79278564;2.43137264
320.79669189;2.43137264
320.80081177;2.74509811
320.80493164;2.82352948
320.80493164;2.74509811
320.80902100;2.72549009
320.81304932;2.86274505
320.81723022;2.66666675
320.81723022;2.64705873
320.82131958;2.86274505
320.82540894;3.00000000
320.82540894;2.94117641
320.82946777;2.94117641
320.83358765;3.25490189
320.83779907;2.94117641
320.83779907;2.74509811
320.84179688;2.64705873
320.84582520;2.15686274
320.84997559;2.09803915
320.84997559;1.94117641
320.85406494;1.82352936
320.85815430;1.88235295
320.86230469;2.15686274
320.86230469;2.78431368
320.86636353;2.82352948
320.87045288;2.54901958
320.87045288;2.45098042
320.87454224;2.43137264
320.87863159;2.03921580
320.88278198;2.03921580
320.88278198;2.00000000
320.88687134;1.92156863
320.89099121;2.29411769
320.89505005;2.41176462
320.89505005;2.13725495
320.89913940;2.01960778
320.90325928;2.09803915
320.90737915;2.09803915
320.90737915;2.35294127
320.91140747;2.52941179
320.91552734;2.64705873
320.91552734;2.78431368
320.91961670;2.86274505
320.92373657;2.72549009
320.92779541;2.15686274
320.92779541;2.29411769
320.93191528;2.31372547
320.93597412;1.98039210
320.94012451;1.94117641
320.94012451;2.13725495
320.94418335;2.49019599
320.94830322;2.56862736
320.95239258;2.52941179
320.95239258;2.74509811
320.95648193;2.43137264
320.96060181;2.43137264
320.96060181;2.58823538
320.96466064;2.76470590
320.96875000;2.27450991
320.97290039;2.74509811
320.97290039;2.96078420
320.97695923;2.58823538
320.98101807;2.66666675
320.98516846;2.70588231
320.98516846;2.45098042
320.98922729;2.43137264
320.99334717;2.60784316
320.99746704;2.56862736
320.99746704;2.62745094
321.00170898;2.78431368
321.00564575;2.80392146
321.00564575;2.76470590
321.00973511;2.92156863
321.01382446;2.86274505
321.01794434;2.62745094
321.01794434;2.78431368
321.02200317;2.92156863
321.02612305;2.64705873
321.03024292;2.64705873
321.03024292;2.70588231
321.03430176;2.54901958
321.03842163;2.54901958
321.04254150;2.47058821
321.04254150;2.33333325
321.04660034;2.13725495
321.05072021;2.21568632
321.05072021;2.27450991
321.05484009;2.25490189
321.05889893;2.23529410
321.06298828;2.39215684
321.06298828;2.25490189
321.06707764;2.19607854
321.07116699;2.13725495
321.07531738;2.07843137
321.07531738;1.84313726
321.07937622;2.00000000
321.08346558;2.29411769
321.08770752;2.29411769
321.08770752;2.41176462
321.09164429;2.58823538
321.09576416;2.68627453
321.09576416;2.66666675
321.09985352;2.84313726
321.10394287;3.11764717
321.10806274;3.03921580
321.10806274;3.29411769
321.11215210;3.43137264
321.11624146;3.37254906
321.12033081;3.00000000
321.12033081;2.62745094
321.12442017;2.15686274
321.12847900;1.72549021
321.13262939;1.01960790
321.13262939;1.01960790
321.13674927;0.82352942
321.14083862;0.94117647
321.14083862;1.29411769
321.14489746;1.45098042
321.14901733;1.66666663
321.15316772;2.19607854
321.15316772;2.29411769
321.15722656;2.49019599
321.16131592;2.68627453
321.16540527;2.58823538
321.16540527;2.49019599
321.16949463;2.58823538
321.17361450;2.58823538
321.17767334;2.56862736
321.17767334;2.86274505
321.18179321;3.17647052
321.18594360;3.31372547
321.18594360;3.76470590
321.18997192;3.58823538
321.19406128;4.00000000
321.19821167;2.96078420
321.19821167;3.15686274
321.20236206;2.88235283
321.20635986;2.00000000
321.21047974;1.86274505
321.21047974;1.98039210
321.21456909;1.90196073
321.21862793;2.09803915
321.22277832;2.43137264
321.22277832;2.45098042
321.22689819;1.96078432
321.23098755;2.17647052
321.23098755;2.29411769
321.23504639;2.03921580
321.23910522;2.01960778
321.24322510;2.35294127
321.24322510;2.49019599
321.24731445;2.56862736
321.25140381;2.72549009
321.25552368;2.90196085
321.25552368;2.88235283
321.25961304;2.82352948
321.26370239;2.84313726
321.26782227;2.76470590
321.26782227;2.50980401
321.27191162;2.47058821
321.27600098;2.47058821
321.27600098;2.39215684
321.28009033;2.56862736
321.28417969;2.60784316
321.28833008;2.58823538
321.28833008;3.05882359
321.29238892;3.27450991
321.29647827;3.01960778
321.30059814;3.01960778
321.30059814;3.09803915
321.30468750;2.90196085
321.30877686;2.47058821
321.31286621;2.19607854
321.31286621;2.23529410
321.31695557;2.15686274
321.32110596;2.39215684
321.32110596;2.58823538
321.32516479;2.56862736
321.32925415;2.64705873
321.33337402;2.76470590
321.33337402;2.64705873
321.33755493;2.62745094
321.34155273;2.70588231
321.34564209;2.72549009
321.34564209;2.62745094
321.34973145;2.62745094
321.35385132;2.72549009
321.35794067;2.56862736
321.35794067;2.56862736
321.36199951;2.64705873
321.36614990;2.50980401
321.36614990;2.39215684
321.37020874;2.33333325
321.37429810;2.37254906
321.37841797;2.21568632
321.37841797;2.31372547
321.38253784;2.52941179
321.38659668;2.66666675
321.39071655;2.72549009
321.39071655;2.66666675
321.39477539;2.84313726
321.39889526;2.64705873
321.40298462;2.25490189
321.40298462;2.21568632
321.40710449;1.92156863
321.41119385;1.64705884
321.41119385;1.88235295
321.41531372;1.74509799
321.41937256;1.78431368
321.42349243;1.82352936
321.42349243;2.07843137
321.42755127;2.13725495
321.43167114;2.21568632
321.43576050;2.07843137
321.43576050;2.29411769
321.43984985;2.35294127
321.44393921;2.17647052
321.44805908;1.90196073
321.44805908;1.94117641
321.45217896;2.03921580
321.45626831;2.13725495
321.45626831;2.17647052
321.46035767;2.41176462
321.46444702;2.47058821
321.46853638;2.37254906
321.46853638;2.45098042
321.47262573;2.52941179
321.47671509;2.45098042
321.48086548;2.58823538
321.48086548;2.72549009
321.48492432;2.62745094
321.48901367;2.66666675
321.49310303;2.76470590
321.49310303;2.78431368
321.49719238;3.03921580
321.50131226;3.00000000
321.50131226;3.21568632
321.50540161;3.17647052
321.50949097;2.96078420
321.51358032;2.94117641
321.51358032;2.45098042
321.51766968;1.88235295
321.52178955;1.98039210
321.52587891;1.94117641
321.52587891;1.72549021
321.52996826;1.92156863
321.53405762;2.50980401
321.53820801;2.41176462
321.53820801;2.74509811
321.54229736;2.84313726
321.54635620;2.64705873
321.54635620;2.64705873
321.55044556;2.70588231
321.55456543;2.66666675
321.55865479;2.50980401
321.55865479;3.25490189
321.56274414;3.23529410
321.56686401;2.96078420
321.57095337;2.39215684
321.57095337;2.45098042
321.57504272;2.15686274
321.57910156;1.94117641
321.58331299;1.47058821
321.58331299;1.84313726
321.58737183;2.07843137
321.59143066;2.41176462
321.59143066;2.80392146
321.59552002;2.72549009
321.59960938;2.74509811
321.60372925;3.07843137
321.60372925;2.82352948
321.60781860;2.72549009
321.61187744;2.84313726
321.61599731;2.84313726
321.61599731;2.82352948
321.62008667;2.88235283
321.62417603;3.01960778
321.62829590;2.98039222
321.62829590;3.33333325
321.63238525;3.31372547
321.63650513;3.01960778
321.63650513;3.15686274
321.64056396;3.13725495
321.64465332;2.72549009
321.64877319;2.05882359
321.64877319;1.70588231
321.65286255;1.86274505
321.65698242;1.54901958
321.66107178;1.39215684
321.66107178;1.62745094
321.66516113;1.72549021
321.66921997;1.76470590
321.67337036;1.92156863
321.67337036;2.17647052
321.67742920;2.31372547
321.68154907;2.50980401
321.68154907;2.66666675
321.68563843;2.58823538
321.68969727;2.66666675
321.69384766;2.70588231
321.69384766;2.62745094
321.69790649;2.68627453
321.70199585;2.76470590
321.70614624;2.74509811
321.70614624;2.68627453
321.71020508;2.72549009
321.71429443;2.74509811
321.71841431;2.58823538
321.71841431;2.68627453
321.72253418;2.60784316
321.72665405;2.47058821
321.72665405;2.39215684
321.73068237;2.33333325
321.73477173;2.25490189
321.73889160;2.21568632
321.73889160;2.23529410
321.74298096;2.27450991
321.74703979;2.09803915
321.75119019;2.29411769
321.75119019;2.33333325
321.75531006;2.03921580
321.75939941;2.13725495
321.76348877;2.29411769
321.76348877;2.29411769
321.76766968;2.15686274
321.77166748;2.15686274
321.77166748;2.19607854
321.77575684;1.66666663
321.77981567;1.47058821
321.78396606;1.27450979
321.78396606;1.27450979
321.78805542;1.37254906
321.79214478;1.31372547
321.79623413;1.82352936
321.79623413;2.25490189
321.80035400;2.52941179
321.80447388;2.56862736
321.80853271;2.41176462
321.80853271;2.41176462
321.81262207;2.52941179
321.81674194;2.49019599
321.81674194;2.60784316
321.82080078;2.66666675
321.82492065;2.68627453
321.82901001;2.72549009
321.82901001;3.01960778
321.83316040;3.82352948
321.83715820;3.47058821
321.84130859;3.25490189
321.84130859;3.52941179
321.84536743;1.74509799
321.84948730;1.15686274
321.85360718;0.39215687
321.85360718;0.00000000
321.85769653;0.00000000
321.86178589;1.07843137
321.86178589;1.96078432
321.86584473;2.25490189
321.86996460;2.90196085
321.87438965;2.94117641
321.87438965;2.25490189
321.87814331;2.00000000
321.88229370;2.07843137
321.88644409;2.17647052
321.88644409;2.45098042
321.89047241;2.78431368
321.89450073;3.11764717
321.89865112;3.15686274
321.89865112;3.45098042
321.90274048;3.82352948
321.90689087;3.78431368
321.90689087;3.86274505
321.91094971;3.80392146
321.91500854;3.39215684
321.91912842;3.39215684
321.91912842;3.01960778
321.92321777;2.58823538
321.92730713;2.52941179
321.93142700;2.92156863
321.93142700;2.68627453
321.93551636;2.29411769
321.93960571;3.07843137
321.94372559;2.98039222
321.94372559;2.52941179
321.94781494;2.60784316
321.95190430;2.96078420
321.95190430;3.23529410
321.95599365;3.31372547
321.96008301;3.52941179
321.96417236;3.58823538
321.96417236;3.45098042
321.96832275;3.43137264
321.97241211;3.35294127
321.97647095;3.21568632
321.97647095;3.11764717
321.98056030;3.17647052
321.98464966;3.11764717
321.98880005;2.96078420
321.98880005;2.96078420
321.99285889;2.94117641
321.99694824;2.72549009
321.99694824;2.72549009
322.00106812;2.82352948
322.00512695;2.68627453
322.00930786;2.58823538
322.00930786;2.54901958
322.01333618;2.64705873
322.01742554;2.47058821
322.02157593;2.49019599
322.02157593;2.50980401
322.02563477;2.31372547
322.02978516;2.23529410
322.03384399;2.15686274
322.03384399;1.98039210
322.03793335;1.86274505
322.04202271;2.00000000
322.04202271;2.00000000
322.04611206;2.03921580
322.05020142;2.03921580
322.05432129;2.17647052
322.05432129;2.25490189
322.05841064;2.76470590
322.06250000;2.94117641
322.06661987;2.92156863
322.06661987;2.82352948
322.07067871;2.60784316
322.07479858;2.50980401
322.07888794;1.80392158
322.07888794;1.25490201
322.08297729;0.70588237
322.08709717;0.47058824
322.08709717;0.70588237
322.09115601;0.64705884
322.09530640;0.60784316
322.09939575;1.01960790
322.09939575;1.60784316
322.10351563;1.98039210
322.10763550;2.17647052
322.11166382;2.39215684
322.11166382;2.56862736
322.11575317;2.54901958
322.11981201;2.64705873
322.12396240;2.80392146
322.12396240;2.68627453
322.12802124;2.78431368
322.13214111;2.82352948
322.13214111;2.90196085
322.13635254;2.84313726
322.14035034;3.13725495
322.14443970;3.35294127
322.14443970;3.33333325
322.14849854;3.05882359
322.15261841;3.25490189
322.15676880;3.15686274
322.15676880;2.84313726
322.16079712;2.78431368
322.16491699;2.92156863
322.16900635;2.98039222
322.16900635;2.64705873
322.17312622;2.78431368
322.17721558;2.62745094
322.17721558;2.09803915
322.18130493;2.01960778
322.18539429;1.50980389
322.18951416;1.54901958
322.18951416;1.52941179
322.19357300;1.70588231
322.19763184;1.72549021
322.20178223;2.29411769
322.20178223;2.76470590
322.20587158;2.92156863
322.20999146;3.19607854
322.21411133;3.31372547
322.21411133;3.17647052
322.21817017;3.07843137
322.22235107;3.07843137
322.22235107;2.86274505
322.22650146;2.76470590
322.23052979;3.03921580
322.23461914;3.05882359
322.23461914;2.92156863
322.23870850;2.98039222
322.24276733;3.01960778
322.24682617;2.90196085
322.24682617;2.64705873
322.25094604;2.54901958
322.25503540;2.49019599
322.25912476;2.37254906
322.25912476;2.50980401
322.26321411;2.25490189
322.26733398;2.15686274
322.26733398;2.19607854
322.27142334;2.25490189
322.27551270;2.33333325
322.27960205;2.33333325
322.27960205;2.37254906
322.28372192;2.66666675
322.28784180;2.64705873
322.29193115;2.72549009
322.29193115;2.96078420
322.29602051;2.90196085
322.30007935;3.05882359
322.30435181;3.11764717
322.30435181;3.01960778
322.30831909;3.01960778
322.31240845;2.94117641
322.31240845;2.84313726
322.31646729;2.68627453
322.32055664;2.70588231
322.32467651;2.74509811
322.32467651;2.50980401
322.32876587;2.47058821
322.33291626;2.39215684
322.33706665;2.33333325
322.33706665;2.23529410
322.34106445;2.07843137
322.34515381;2.03921580
322.34930420;1.86274505
322.34930420;1.86274505
322.35333252;2.00000000
322.35748291;1.90196073
322.35748291;1.92156863
322.36154175;2.03921580
322.36560059;2.01960778
322.36975098;2.05882359
322.36975098;2.09803915
322.37380981;2.25490189
322.37789917;2.09803915
322.38204956;1.90196073
322.38204956;2.01960778
322.38613892;1.88235295
322.39019775;1.72549021
322.39431763;1.62745094
322.39431763;1.58823526
322.39840698;1.78431368
322.40249634;2.07843137
322.40249634;1.78431368
322.40661621;1.72549021
322.41067505;2.17647052
322.41482544;2.47058821
322.41482544;2.19607854
322.41888428;2.15686274
322.42297363;2.64705873
322.42709351;2.43137264
322.42709351;2.17647052
322.43115234;2.03921580
322.43530273;1.94117641
322.43939209;1.82352936
322.43939209;2.01960778
322.44345093;2.19607854
322.44757080;2.19607854
322.44757080;2.35294127
322.45166016;2.49019599
322.45578003;2.50980401
322.45986938;2.62745094
322.45986938;2.80392146
322.46392822;2.82352948
322.46801758;2.72549009
322.47216797;2.82352948
322.47216797;2.96078420
322.47622681;2.50980401
322.48034668;2.56862736
322.48449707;2.52941179
322.48449707;1.96078432
322.48852539;1.90196073
322.49264526;1.74509799
322.49264526;1.60784316
322.49670410;1.41176474
322.50082397;1.66666663
322.50491333;1.60784316
322.50491333;1.49019611
322.50900269;1.60784316
322.51312256;1.72549021
322.51721191;1.66666663
322.51721191;1.82352936
322.52133179;2.00000000
322.52539063;2.07843137
322.52947998;2.15686274
322.52947998;2.11764717
322.53356934;2.33333325
322.53768921;2.31372547
322.53768921;2.31372547
322.54177856;2.54901958
322.54586792;2.56862736
322.54998779;2.60784316
322.54998779;2.47058821
322.55419922;2.47058821
322.55816650;2.17647052
322.56234741;1.84313726
322.56234741;1.90196073
322.56634521;1.76470590
322.57046509;1.78431368
322.57455444;1.98039210
322.57455444;2.03921580
322.57864380;2.49019599
322.58276367;2.58823538
322.58276367;2.50980401
322.58682251;2.52941179
322.59094238;2.68627453
322.59503174;2.74509811
322.59503174;2.76470590
322.59912109;3.01960778
322.60324097;3.13725495
322.60733032;3.17647052
322.60733032;3.37254906
322.61148071;3.33333325
322.61550903;3.35294127
322.61959839;3.39215684
322.61959839;3.58823538
322.62371826;3.50980401
322.62780762;3.33333325
322.62780762;3.07843137
322.63189697;3.00000000
322.63601685;2.84313726
322.64013672;2.56862736
322.64013672;2.37254906
322.64419556;2.43137264
322.64831543;2.52941179
322.65237427;2.54901958
322.65237427;2.82352948
322.65649414;3.09803915
322.66055298;3.29411769
322.66467285;3.03921580
322.66467285;3.37254906
322.66876221;3.33333325
322.67288208;3.17647052
322.67288208;2.70588231
322.67697144;2.52941179
322.68103027;2.49019599
322.68515015;2.27450991
322.68515015;2.17647052
322.68933105;2.23529410
322.69332886;2.33333325
322.69744873;2.33333325
322.69744873;2.49019599
322.70153809;2.72549009
322.70565796;2.62745094
322.70977783;2.74509811
322.70977783;2.78431368
322.71380615;2.80392146
322.71795654;2.78431368
322.71795654;2.82352948
322.72201538;2.86274505
322.72610474;2.66666675
322.73022461;2.64705873
322.73022461;2.58823538
322.73431396;2.33333325
322.73840332;2.27450991
322.74252319;2.39215684
322.74252319;2.27450991
322.74661255;2.29411769
322.75070190;2.35294127
322.75479126;2.50980401
322.75479126;2.43137264
322.75888062;2.41176462
322.76300049;2.60784316
322.76300049;2.45098042
322.76705933;2.47058821
322.77117920;2.45098042
322.77529907;2.43137264
322.77529907;2.37254906
322.77935791;2.43137264
322.78344727;2.45098042
322.78756714;2.49019599
322.78756714;2.50980401
322.79165649;2.41176462
322.79574585;2.54901958
322.79986572;2.56862736
322.79986572;2.39215684
322.80407715;2.03921580
322.80807495;1.94117641
322.80807495;1.96078432
322.81213379;1.80392158
322.81622314;1.52941179
322.82034302;1.82352936
322.82034302;2.01960778
322.82440186;2.01960778
322.82852173;2.07843137
322.83264160;2.17647052
322.83264160;2.27450991
322.83673096;2.29411769
322.84082031;2.43137264
322.84490967;2.50980401
322.84490967;2.37254906
322.84899902;2.50980401
322.85311890;2.56862736
322.85311890;2.80392146
322.85717773;3.54901958
322.86129761;3.68627453
322.86541748;2.74509811
322.86541748;2.66666675
322.86947632;2.50980401
322.87353516;1.50980389
322.87768555;0.72549021
322.87768555;0.54901963
322.88174438;0.78431374
322.88586426;1.29411769
322.88998413;2.05882359
322.88998413;2.49019599
322.89407349;2.78431368
322.89816284;2.96078420
322.89816284;3.27450991
322.90231323;3.35294127
322.90640259;3.15686274
322.91046143;3.19607854
322.91046143;3.15686274
322.91452026;3.09803915
322.91864014;2.96078420
322.92279053;3.00000000
322.92279053;3.09803915
322.92684937;2.92156863
322.93093872;2.80392146
322.93502808;3.15686274
322.93502808;2.84313726
322.93911743;2.25490189
322.94323730;1.72549021
322.94323730;2.64705873
322.94735718;1.41176474
322.95141602;1.41176474
322.95550537;1.58823526
322.95550537;1.86274505
322.95959473;2.19607854
322.96368408;2.01960778
322.96780396;2.09803915
322.96780396;2.15686274
322.97192383;2.07843137
322.97598267;2.07843137
322.98007202;2.43137264
322.98007202;2.70588231
322.98425293;2.70588231
322.98831177;2.74509811
322.98831177;2.76470590
322.99234009;2.86274505
322.99645996;2.74509811
323.00057983;2.84313726
323.00057983;2.94117641
323.00466919;2.94117641
323.00875854;3.09803915
323.01287842;2.84313726
323.01287842;2.88235283
323.01696777;3.13725495
323.02108765;2.86274505
323.02514648;2.31372547
323.02514648;2.19607854
323.02923584;2.13725495
323.03335571;1.80392158
323.03335571;1.52941179
323.03744507;1.45098042
323.04153442;1.80392158
323.04562378;1.98039210
323.04562378;2.09803915
323.04974365;2.23529410
323.05392456;2.37254906
323.05795288;2.47058821
323.05795288;2.66666675
323.06207275;2.78431368
323.06610107;2.68627453
323.07019043;2.70588231
323.07019043;2.82352948
323.07431030;2.70588231
323.07839966;2.58823538
323.07839966;2.68627453
323.08248901;2.66666675
323.08657837;2.50980401
323.09069824;2.39215684
323.09069824;2.49019599
323.09478760;2.31372547
323.09887695;2.60784316
323.10299683;2.74509811
323.10299683;2.31372547
323.10708618;2.23529410
323.11114502;2.33333325
323.11532593;2.11764717
323.11532593;1.86274505
323.11935425;1.90196073
323.12347412;2.01960778
323.12347412;2.15686274
323.12756348;2.27450991
323.13165283;2.23529410
323.13577271;2.29411769
323.13577271;2.19607854
323.13983154;2.52941179
323.14392090;2.50980401
323.14807129;2.19607854
323.14807129;2.37254906
323.15213013;2.45098042
323.15621948;2.19607854
323.16033936;2.47058821
323.16033936;2.72549009
323.16439819;2.94117641
323.16851807;2.94117641
323.16851807;3.13725495
323.17266846;3.17647052
323.17669678;2.94117641
323.18081665;2.78431368
323.18081665;2.70588231
323.18490601;2.66666675
323.18908691;3.00000000
323.19311523;2.94117641
323.19311523;3.01960778
323.19717407;3.03921580
323.20132446;2.96078420
323.20544434;2.94117641
323.20544434;2.56862736
323.20947266;2.56862736
323.21359253;2.49019599
323.21359253;2.27450991
323.21768188;2.45098042
323.22183228;2.41176462
323.22592163;2.29411769
323.22592163;2.21568632
323.23001099;2.66666675
323.23410034;2.78431368
323.23822021;2.62745094
323.23822021;2.92156863
323.24230957;3.41176462
323.24633789;3.60784316
323.25045776;3.47058821
323.25045776;3.47058821
323.25454712;3.33333325
323.25866699;3.05882359
323.25866699;3.07843137
323.26272583;2.78431368
323.26681519;2.37254906
323.27096558;2.33333325
323.27096558;2.41176462
323.27502441;2.33333325
323.27911377;2.50980401
323.28323364;2.68627453
323.28323364;2.64705873
323.28735352;2.76470590
323.29141235;2.88235283
323.29550171;3.03921580
323.29550171;3.11764717
323.29962158;3.35294127
323.30386353;3.05882359
323.30386353;3.00000000
323.30776978;3.05882359
323.31188965;2.60784316
323.31600952;2.35294127
323.31600952;2.25490189
323.32009888;2.13725495
323.32418823;1.58823526
323.32830811;1.92156863
323.32830811;1.96078432
323.33236694;1.60784316
323.33645630;1.90196073
323.34060669;2.45098042
323.34060669;2.88235283
323.34466553;2.94117641
323.34878540;3.07843137
323.34878540;3.13725495
323.35284424;3.09803915
323.35693359;2.92156863
323.36105347;2.92156863
323.36105347;2.92156863
323.36514282;2.70588231
323.36926270;2.60784316
323.37335205;2.58823538
323.37335205;2.37254906
323.37744141;2.29411769
323.38153076;2.33333325
323.38565063;2.19607854
323.38565063;2.13725495
323.38970947;2.13725495
323.39382935;2.23529410
323.39382935;2.05882359
323.39788818;2.15686274
323.40200806;2.25490189
323.40789795;2.11764717
323.40789795;2.21568632
323.41021729;2.33333325
323.41430664;2.52941179
323.41839600;2.58823538
323.41839600;2.60784316
323.42251587;2.94117641
323.42657471;2.70588231
323.43072510;2.41176462
323.43072510;2.39215684
323.43478394;2.17647052
323.43893433;1.74509799
323.44296265;1.58823526
323.44708252;1.49019611
323.45117188;1.74509799
323.45117188;2.03921580
323.45532227;2.21568632
323.45935059;2.23529410
323.46347046;2.58823538
323.46347046;2.41176462
323.46755981;2.23529410
323.47164917;2.11764717
323.47576904;2.09803915
323.47576904;2.09803915
323.47985840;2.33333325
323.48394775;2.47058821
323.48803711;2.60784316
323.49212646;2.78431368
323.49621582;2.60784316
323.49621582;2.70588231
323.50033569;2.82352948
323.50439453;2.66666675
323.50854492;2.76470590
323.50854492;2.82352948
323.51260376;2.66666675
323.51672363;2.43137264
323.52081299;2.47058821
323.52081299;2.31372547
323.52490234;2.31372547
323.52902222;2.29411769
323.52902222;2.11764717
323.53308105;2.64705873
323.53723145;2.84313726
323.54132080;2.82352948
323.54132080;2.74509811
323.54537964;2.52941179
323.54946899;2.29411769
323.55361938;2.19607854
323.55361938;1.94117641
323.55773926;2.03921580
323.56176758;2.37254906
323.56588745;2.94117641
323.56588745;3.13725495
323.56994629;3.35294127
323.57409668;2.76470590
323.57815552;2.50980401
323.58221436;1.76470590
323.58636475;1.29411769
323.58636475;1.19607842
323.59045410;1.72549021
323.59454346;2.09803915
323.59866333;2.25490189
323.59866333;2.52941179
323.60272217;2.74509811
323.60684204;2.80392146
323.61093140;2.98039222
323.61093140;3.17647052
323.61502075;3.13725495
323.61917114;3.09803915
323.62316895;3.33333325
323.62728882;3.00000000
323.63140869;2.86274505
323.63140869;3.07843137
323.63555908;2.86274505
323.63961792;2.90196085
323.64370728;3.07843137
323.64370728;3.11764717
323.64779663;2.82352948
323.65188599;2.64705873
323.65603638;2.35294127
323.65603638;1.94117641
323.66006470;1.54901958
323.66418457;1.33333337
323.66830444;1.54901958
323.67236328;1.94117641
323.67648315;2.03921580
323.67648315;2.07843137
323.68057251;2.45098042
323.68466187;2.60784316
323.68875122;2.68627453
323.68875122;2.84313726
323.69284058;3.05882359
323.69689941;2.82352948
323.70108032;2.96078420
323.70108032;2.90196085
323.70513916;2.39215684
323.70932007;2.68627453
323.71334839;2.35294127
323.71749878;2.13725495
323.72155762;2.49019599
323.72155762;2.39215684
323.72561646;1.78431368
323.72973633;1.74509799
323.73382568;1.84313726
323.73382568;1.52941179
323.73791504;1.43137252
323.74203491;1.80392158
323.74615479;1.82352936
323.74615479;1.74509799
323.75021362;2.01960778
323.75430298;2.17647052
323.75839233;2.33333325
323.76248169;2.50980401
323.76660156;2.45098042
323.76660156;2.60784316
323.77069092;2.76470590
323.77478027;2.80392146
323.77886963;3.00000000
323.77886963;3.19607854
323.78305054;3.21568632
323.78710938;3.21568632
323.79119873;3.03921580
323.79119873;3.01960778
323.79577637;2.62745094
323.79937744;2.45098042
323.80346680;2.45098042
323.80755615;2.35294127
323.81164551;2.49019599
323.81164551;2.45098042
323.81573486;2.25490189
323.81982422;2.37254906
323.82397461;2.41176462
323.82397461;2.39215684
323.82800293;2.39215684
323.83212280;2.84313726
323.83621216;2.80392146
323.83621216;2.82352948
323.84033203;2.96078420
323.84442139;2.84313726
323.84848022;2.60784316
323.85260010;2.35294127
323.85668945;2.21568632
323.85668945;2.31372547
323.86080933;2.23529410
323.86489868;2.09803915
323.86898804;2.27450991
323.86898804;2.23529410
323.87307739;2.29411769
323.87716675;2.23529410
323.88128662;2.35294127
323.88128662;2.33333325
323.88537598;2.25490189
323.88946533;2.25490189
323.89355469;2.47058821
323.89764404;2.31372547
323.90176392;2.64705873
323.90176392;2.86274505
323.90588379;2.78431368
323.90997314;2.68627453
323.91403198;2.49019599
323.91403198;2.49019599
323.91812134;2.60784316
323.92224121;2.50980401
323.92633057;2.29411769
323.92633057;2.39215684
323.93041992;2.52941179
323.93453979;2.62745094
323.93862915;2.47058821
323.94271851;2.52941179
323.94680786;2.27450991
323.94680786;2.27450991
323.95089722;2.35294127
323.95498657;2.35294127
323.95910645;2.45098042
323.95910645;2.60784316
323.96322632;2.60784316
323.96728516;2.66666675
323.97143555;2.78431368
323.97143555;2.98039222
323.97549438;2.80392146
323.97958374;2.92156863
323.98367310;2.64705873
323.98779297;2.52941179
323.99191284;2.43137264
323.99191284;2.15686274
323.99597168;2.11764717
324.00009155;2.35294127
324.00418091;2.35294127
324.00418091;2.27450991
324.00830078;2.41176462
324.01235962;2.43137264
324.01647949;2.35294127
324.01647949;2.47058821
324.02056885;2.45098042
324.02468872;2.41176462
324.02874756;2.41176462
324.03286743;2.52941179
324.03704834;2.47058821
324.03704834;2.74509811
324.04104614;2.88235283
324.04513550;2.72549009
324.04931641;2.72549009
324.04931641;2.82352948
324.05334473;2.78431368
324.05743408;2.45098042
324.06152344;2.66666675
324.06152344;2.62745094
324.06564331;2.41176462
324.06973267;2.39215684
324.07379150;2.25490189
324.07791138;2.31372547
324.08200073;2.31372547
324.08200073;2.25490189
324.08612061;2.47058821
324.09030151;2.35294127
324.09432983;2.33333325
324.09432983;2.25490189
324.09838867;2.27450991
324.10247803;2.25490189
324.10665894;2.07843137
324.10665894;2.11764717
324.11068726;2.19607854
324.11477661;2.15686274
324.11892700;2.23529410
324.12298584;2.35294127
324.12707520;2.29411769
324.12707520;2.33333325
324.13116455;2.41176462
324.13531494;2.39215684
324.13940430;2.39215684
324.13940430;2.47058821
324.14346313;2.37254906
324.14755249;2.62745094
324.15164185;2.62745094
324.15164185;2.92156863
324.15576172;3.13725495
324.15985107;3.25490189
324.16397095;2.84313726
324.16809082;2.82352948
324.17224121;2.56862736
324.17224121;2.03921580
324.17623901;1.70588231
324.18032837;1.88235295
324.18441772;2.31372547
324.18441772;2.21568632
324.18850708;2.00000000
324.19259644;2.50980401
324.19671631;2.49019599
324.19671631;2.29411769
324.20080566;2.13725495
324.20492554;1.98039210
324.20901489;1.60784316
324.21307373;1.66666663
324.21719360;2.03921580
324.21719360;2.15686274
324.22134399;2.25490189
324.22540283;2.27450991
324.22955322;2.39215684
324.22955322;2.21568632
324.23361206;1.92156863
324.23770142;1.86274505
324.24179077;2.41176462
324.24179077;2.78431368
324.24588013;2.49019599
324.25000000;2.80392146
324.25405884;2.80392146
324.25811768;2.74509811
324.26232910;2.68627453
324.26232910;2.49019599
324.26632690;2.43137264
324.27044678;2.52941179
324.27456665;2.66666675
324.27456665;2.66666675
324.27862549;2.90196085
324.28271484;3.13725495
324.28695679;3.05882359
324.28695679;2.98039222
324.29092407;2.96078420
324.29504395;2.86274505
324.29910278;2.76470590
324.30322266;2.58823538
324.30734253;2.54901958
324.30734253;2.64705873
324.31140137;2.68627453
324.31552124;2.54901958
324.31961060;2.43137264
324.31961060;2.54901958
324.32366943;2.23529410
324.32778931;1.98039210
324.33190918;1.96078432
324.33190918;2.05882359
324.33599854;1.78431368
324.34011841;2.07843137
324.34417725;2.25490189
324.34829712;2.23529410
324.35241699;2.33333325
324.35241699;2.31372547
324.35650635;2.25490189
324.36059570;2.35294127
324.36465454;2.39215684
324.36465454;2.35294127
324.36880493;2.29411769
324.37280273;2.39215684
324.37695313;2.35294127
324.37695313;2.45098042
324.38104248;2.60784316
324.38516235;2.56862736
324.38925171;2.58823538
324.39334106;2.54901958
324.39743042;2.45098042
324.39743042;2.47058821
324.40151978;2.47058821
324.40567017;2.33333325
324.40972900;2.35294127
324.40972900;2.52941179
324.41381836;2.54901958
324.41790771;2.35294127
324.42224121;2.64705873
324.42224121;2.72549009
324.42611694;2.62745094
324.43023682;2.50980401
324.43432617;2.35294127
324.43838501;2.50980401
324.44250488;2.60784316
324.44250488;2.35294127
324.44659424;2.39215684
324.45068359;2.39215684
324.45480347;2.43137264
324.45480347;2.27450991
324.45889282;2.47058821
324.46295166;2.74509811
324.46710205;2.58823538
324.46710205;2.72549009
324.47119141;2.68627453
324.47531128;2.41176462
324.47933960;2.82352948
324.48345947;2.70588231
324.48754883;2.17647052
324.48754883;2.45098042
324.49163818;2.50980401
324.49572754;2.00000000
324.49984741;1.82352936
324.49984741;1.94117641
324.50393677;1.94117641
324.50802612;2.31372547
324.51214600;2.66666675
324.51214600;2.80392146
324.51623535;2.56862736
324.52035522;2.92156863
324.52441406;2.33333325
324.52850342;2.29411769
324.53262329;2.21568632
324.53262329;2.17647052
324.53683472;2.19607854
324.54077148;2.50980401
324.54492188;2.62745094
324.54492188;2.49019599
324.54898071;2.62745094
324.55310059;2.74509811
324.55722046;2.47058821
324.55722046;2.62745094
324.56130981;2.70588231
324.56539917;2.58823538
324.56948853;2.74509811
324.57354736;2.68627453
324.57769775;2.56862736
324.57769775;2.64705873
324.58175659;2.72549009
324.58587646;2.50980401
324.58999634;2.54901958
324.58999634;2.60784316
324.59405518;2.41176462
324.59811401;2.33333325
324.60229492;2.50980401
324.60229492;2.47058821
324.60635376;2.41176462
324.61077881;2.35294127
324.61453247;2.66666675
324.61868286;2.80392146
324.62274170;2.82352948
324.62274170;2.72549009
324.62683105;3.05882359
324.63088989;2.52941179
324.63504028;2.17647052
324.63504028;1.94117641
324.63909912;1.82352936
324.64321899;1.60784316
324.64730835;1.41176474
324.64730835;1.70588231
324.65139771;2.09803915
324.65551758;2.41176462
324.65960693;2.94117641
324.66369629;2.80392146
324.66781616;2.90196085
324.66781616;2.72549009
324.67190552;2.49019599
324.67599487;2.03921580
324.68008423;2.09803915
324.68008423;2.21568632
324.68417358;2.15686274
324.68829346;2.29411769
324.69238281;2.49019599
324.69238281;2.49019599
324.69647217;2.52941179
324.70059204;2.66666675
324.70465088;2.58823538
324.70874023;2.60784316
324.71286011;2.86274505
324.71286011;2.78431368
324.71694946;2.88235283
324.72122192;2.92156863
324.72515869;2.96078420
324.72515869;2.76470590
324.72921753;2.58823538
324.73333740;2.54901958
324.73742676;2.19607854
324.73742676;2.29411769
324.74154663;2.43137264
324.74563599;2.39215684
324.74972534;2.05882359
324.75381470;2.25490189
324.75793457;2.13725495
324.75793457;2.07843137
324.76202393;2.03921580
324.76611328;2.03921580
324.77020264;2.33333325
324.77020264;2.47058821
324.77432251;2.41176462
324.77838135;2.54901958
324.78250122;2.72549009
324.78250122;2.68627453
324.78674316;2.66666675
324.79071045;2.64705873
324.79476929;2.54901958
324.79888916;2.72549009
324.80300903;2.66666675
324.80300903;2.66666675
324.80706787;2.86274505
324.81115723;3.09803915
324.81530762;2.90196085
324.81530762;2.72549009
324.81936646;2.76470590
324.82342529;2.66666675
324.82757568;2.03921580
324.82757568;1.84313726
324.83163452;1.78431368
324.83578491;1.27450979
324.83984375;1.49019611
324.84393311;1.66666663
324.84802246;1.66666663
324.84802246;1.84313726
324.85214233;2.33333325
324.85626221;2.58823538
324.86032104;2.86274505
324.86032104;3.01960778
324.86441040;2.58823538
324.86849976;2.78431368
324.87261963;2.82352948
324.87261963;2.62745094
324.87670898;2.54901958
324.88079834;2.64705873
324.88491821;2.74509811
324.88897705;2.74509811
324.89312744;2.82352948
324.89312744;2.58823538
324.89718628;2.64705873
324.90130615;2.74509811
324.90539551;2.64705873
324.90539551;2.66666675
324.90948486;2.52941179
324.91354370;2.56862736
324.91769409;2.41176462
324.91769409;2.29411769
324.92178345;2.25490189
324.92590332;2.15686274
324.92996216;2.13725495
324.93405151;2.07843137
324.93817139;2.05882359
324.93817139;2.13725495
324.94232178;2.07843137
324.94631958;2.05882359
324.95046997;2.43137264
324.95046997;2.29411769
324.95452881;2.49019599
324.95864868;2.74509811
324.96273804;2.74509811
324.96273804;2.52941179
324.96682739;2.60784316
324.97094727;2.23529410
324.97500610;2.13725495
324.97909546;2.17647052
324.98327637;2.21568632
324.98327637;2.19607854
324.98730469;2.39215684
324.99142456;2.47058821
324.99551392;2.33333325
324.99551392;2.39215684
324.99960327;2.58823538
325.00369263;2.62745094
325.00781250;2.56862736
325.00781250;2.70588231
325.01187134;2.90196085
325.01602173;2.84313726
325.02011108;3.07843137
325.02413940;2.92156863
325.02832031;2.84313726
325.02832031;2.76470590
325.03234863;2.74509811
325.03662109;2.68627453
325.04064941;2.80392146
325.04064941;2.84313726
325.04464722;2.70588231
325.04876709;2.76470590
325.05285645;2.86274505
325.05285645;2.60784316
325.05691528;2.66666675
325.06106567;2.84313726
325.06512451;2.66666675
325.06924438;2.54901958
325.07333374;2.68627453
325.07333374;2.43137264
325.07745361;2.19607854
325.08154297;2.25490189
325.08563232;2.15686274
325.08563232;1.80392158
325.08972168;1.82352936
325.09381104;1.70588231
325.09793091;1.84313726
325.09793091;1.90196073
325.10202026;2.05882359
325.10610962;2.11764717
325.11019897;2.58823538
325.11431885;2.45098042
325.11840820;2.45098042
325.11840820;2.70588231
325.12246704;2.68627453
325.12658691;2.74509811
325.13067627;2.80392146
325.13067627;2.92156863
325.13476563;3.00000000
325.13885498;2.92156863
325.14297485;2.88235283
325.14297485;2.60784316
325.14706421;2.50980401
325.15115356;2.27450991
325.15551758;2.00000000
325.15936279;2.35294127
325.16345215;2.37254906
325.16345215;2.23529410
325.16754150;2.13725495
325.17163086;2.41176462
325.17575073;2.23529410
325.17575073;2.27450991
325.17984009;2.31372547
325.18392944;2.54901958
325.18804932;2.60784316
325.18804932;2.50980401
325.19213867;2.52941179
325.19622803;2.41176462
325.20031738;2.66666675
325.20440674;2.60784316
325.20852661;2.68627453
325.20852661;2.68627453
325.21261597;2.62745094
325.21670532;2.52941179
325.22082520;2.64705873
325.22082520;2.64705873
325.22488403;2.56862736
325.22906494;2.60784316
325.23321533;2.66666675
325.23321533;2.54901958
325.23721313;2.60784316
325.24130249;2.66666675
325.24539185;2.80392146
325.24948120;2.52941179
325.25363159;2.60784316
325.25363159;2.45098042
325.25765991;2.49019599
325.26177979;2.49019599
325.26589966;2.19607854
325.26589966;2.37254906
325.26998901;2.41176462
325.27407837;2.31372547
325.27816772;2.11764717
325.27816772;2.11764717
325.28222656;2.15686274
325.28652954;2.05882359
325.29043579;2.11764717
325.29452515;2.17647052
325.29864502;2.47058821
325.29864502;2.56862736
325.30270386;2.56862736
325.30682373;2.60784316
325.31094360;2.66666675
325.31094360;2.56862736
325.31500244;2.41176462
325.31909180;2.33333325
325.32324219;2.11764717
325.32324219;2.35294127
325.32730103;2.29411769
325.33142090;2.21568632
325.33551025;2.54901958
325.33956909;2.74509811
325.34371948;2.84313726
325.34371948;2.74509811
325.34777832;2.86274505
325.35189819;2.88235283
325.35601807;2.23529410
325.35601807;2.23529410
325.36007690;2.35294127
325.36416626;2.00000000
325.36831665;1.94117641
325.36831665;2.00000000
325.37234497;2.11764717
325.37643433;2.07843137
325.38055420;2.45098042
325.38467407;2.39215684
325.38882446;2.47058821
325.38882446;2.45098042
325.39285278;2.31372547
325.39691162;2.39215684
325.40106201;2.52941179
325.40106201;2.50980401
325.40515137;2.47058821
325.40924072;2.64705873
325.41333008;2.92156863
325.41333008;2.72549009
325.41741943;2.70588231
325.42156982;2.78431368
325.42559814;3.05882359
325.42971802;2.82352948
325.43383789;2.84313726
325.43383789;2.62745094
325.43789673;2.41176462
325.44201660;2.00000000
325.44610596;1.56862748
325.44610596;1.52941179
325.45019531;1.78431368
325.45431519;2.01960778
325.45843506;2.21568632
325.45843506;2.58823538
325.46246338;2.74509811
325.46655273;2.84313726
325.47070313;2.90196085
325.47473145;2.84313726
325.47888184;3.19607854
325.47888184;3.56862736
325.48294067;3.62745094
325.48706055;3.03921580
325.49118042;3.35294127
325.49118042;3.19607854
325.49530029;2.60784316
325.49935913;1.94117641
325.50344849;1.96078432
325.50344849;2.05882359
325.50756836;2.07843137
325.51165771;1.94117641
325.51571655;2.29411769
325.51983643;2.47058821
325.52392578;2.58823538
325.52392578;2.49019599
325.52801514;2.62745094
325.53213501;2.76470590
325.53643799;2.54901958
325.53643799;2.52941179
325.54031372;2.52941179
325.54440308;2.47058821
325.54852295;2.52941179
325.54852295;2.41176462
325.55261230;2.45098042
325.55670166;2.39215684
325.56079102;2.41176462
325.56491089;2.39215684
325.56900024;2.52941179
325.56900024;2.43137264
325.57308960;2.39215684
325.57717896;2.56862736
325.58129883;2.47058821
325.58129883;2.49019599
325.58535767;2.25490189
325.58947754;2.35294127
325.59359741;2.70588231
325.59359741;2.70588231
325.59765625;2.56862736
325.60180664;3.03921580
325.60586548;2.88235283
325.60995483;3.00000000
325.61407471;2.84313726
325.61407471;2.68627453
325.61816406;3.13725495
325.62222290;3.19607854
325.62634277;2.86274505
325.62634277;2.94117641
325.63043213;2.88235283
325.63452148;2.60784316
325.63864136;2.50980401
325.63864136;2.56862736
325.64273071;2.56862736
325.64685059;2.56862736
325.65093994;2.60784316
325.65502930;2.35294127
325.65911865;2.37254906
325.65911865;2.27450991
325.66320801;2.01960778
325.66729736;2.09803915
325.67141724;2.39215684
325.67141724;2.52941179
325.67550659;2.50980401
325.67956543;2.78431368
325.68371582;2.96078420
325.68371582;2.88235283
325.68777466;3.00000000
325.69189453;2.86274505
325.69598389;2.66666675
325.70004272;2.54901958
325.70419312;2.17647052
325.70419312;2.01960778
325.70831299;2.03921580
325.71234131;2.25490189
325.71646118;2.17647052
325.71646118;2.49019599
325.72058105;2.60784316
325.72463989;2.35294127
325.72875977;2.33333325
325.72875977;2.33333325
325.73284912;2.05882359
325.73696899;1.98039210
325.74102783;2.25490189
325.74514771;2.19607854
325.74923706;2.31372547
325.74923706;2.56862736
325.75332642;2.39215684
325.75738525;2.25490189
325.76153564;2.37254906
325.76153564;2.41176462
325.76562500;2.27450991
325.76974487;2.35294127
325.77383423;2.09803915
325.77383423;2.05882359
325.77789307;2.11764717
325.78201294;2.03921580
325.78628540;2.13725495
325.79016113;2.25490189
325.79431152;2.33333325
325.79431152;2.47058821
325.79837036;2.49019599
325.80249023;2.31372547
325.80661011;2.01960778
325.80661011;2.03921580
325.81066895;2.17647052
325.81478882;2.19607854
325.81887817;2.35294127
325.81887817;2.47058821
325.82296753;2.52941179
325.82708740;2.60784316
325.83114624;2.74509811
325.83529663;2.49019599
325.83938599;2.64705873
325.83938599;2.74509811
325.84347534;2.35294127
325.84750366;2.35294127
325.85168457;2.62745094
325.85168457;2.68627453
325.85574341;2.09803915
325.85983276;2.41176462
325.86395264;2.56862736
325.86395264;2.09803915
325.86804199;1.94117641
325.87213135;1.98039210
325.87619019;2.23529410
325.88031006;2.43137264
325.88442993;2.64705873
325.88442993;2.80392146
325.88851929;2.78431368
325.89260864;2.96078420
325.89669800;2.84313726
325.89669800;2.76470590
325.90081787;2.82352948
325.90493774;2.52941179
325.90902710;2.43137264
325.90902710;2.35294127
325.91308594;2.31372547
325.91717529;2.37254906
325.92135620;2.58823538
325.92538452;2.60784316
325.92947388;2.76470590
325.92947388;2.80392146
325.93356323;2.70588231
325.93765259;2.94117641
325.94180298;3.00000000
325.94180298;2.98039222
325.94586182;3.01960778
325.94995117;2.49019599
325.95407104;2.39215684
325.95407104;2.09803915
325.95816040;1.82352936
325.96231079;1.64705884
325.96633911;1.62745094
325.97045898;1.76470590
325.97454834;2.00000000
325.97454834;2.07843137
325.97863770;2.35294127
325.98269653;2.54901958
325.98684692;2.56862736
325.98684692;2.60784316
325.99090576;2.74509811
325.99499512;2.62745094
325.99917603;2.60784316
325.99917603;2.62745094
326.00320435;2.52941179
326.00729370;2.52941179
326.01141357;2.54901958
326.01550293;2.47058821
326.01962280;2.47058821
326.01962280;2.72549009
326.02368164;2.66666675
326.02777100;2.54901958
326.03189087;2.58823538
326.03189087;2.52941179
326.03616333;2.29411769
326.04003906;2.23529410
326.04418945;2.11764717
326.04418945;1.94117641
326.04830933;1.96078432
326.05233765;2.35294127
326.05645752;2.31372547
326.06057739;2.60784316
326.06469727;2.52941179
326.06469727;2.54901958
326.06878662;2.41176462
326.07281494;2.49019599
326.07696533;2.31372547
326.07696533;2.37254906
326.08102417;2.47058821
326.08514404;2.37254906
326.08923340;2.41176462
326.08923340;2.50980401
326.09332275;2.54901958
326.09744263;2.47058821
326.10162354;2.64705873
326.10562134;2.62745094
326.10977173;2.64705873
326.10977173;2.80392146
326.11383057;2.72549009
326.11788940;2.82352948
326.12200928;2.90196085
326.12200928;3.09803915
326.12609863;2.78431368
326.13015747;2.62745094
326.13430786;2.54901958
326.13430786;2.09803915
326.13839722;1.92156863
326.14248657;1.82352936
326.14660645;1.56862748
326.15063477;1.78431368
326.15481567;1.84313726
326.15481567;2.01960778
326.15887451;2.05882359
326.16296387;2.19607854
326.16708374;2.13725495
326.16708374;2.33333325
326.17117310;2.52941179
326.17529297;2.27450991
326.17938232;2.49019599
326.17938232;2.54901958
326.18344116;2.47058821
326.18756104;2.58823538
326.19165039;2.56862736
326.19573975;2.60784316
326.19982910;2.70588231
326.19982910;2.64705873
326.20394897;2.45098042
326.20797729;2.52941179
326.21212769;2.62745094
326.21212769;2.50980401
326.21621704;2.78431368
326.22033691;3.07843137
326.22445679;2.52941179
326.22445679;2.68627453
326.22857666;2.98039222
326.23260498;2.72549009
326.23672485;2.49019599
326.24081421;2.72549009
326.24490356;2.39215684
326.24490356;2.47058821
326.24899292;2.78431368
326.25308228;2.68627453
326.25717163;2.35294127
326.25717163;2.78431368
326.26132202;2.66666675
326.26538086;2.39215684
326.26956177;2.31372547
326.26956177;2.33333325
326.27355957;2.27450991
326.27767944;2.41176462
326.28176880;2.60784316
326.28591919;2.62745094
326.28994751;2.72549009
326.28994751;2.84313726
326.29406738;2.72549009
326.29809570;2.80392146
326.30233765;2.88235283
326.30233765;2.74509811
326.30633545;2.80392146
326.31042480;2.88235283
326.31454468;2.94117641
326.31454468;2.94117641
326.31860352;3.03921580
326.32275391;2.80392146
326.32684326;2.33333325
326.33090210;2.09803915
326.33505249;1.80392158
326.33505249;1.76470590
326.33914185;1.76470590
326.34320068;1.88235295
326.34729004;2.07843137
326.34729004;2.21568632
326.35144043;2.43137264
326.35552979;2.56862736
326.35961914;2.94117641
326.35961914;2.92156863
326.36367798;2.82352948
326.36776733;2.84313726
326.37188721;2.64705873
326.37594604;2.60784316
326.38009644;2.80392146
326.38009644;2.76470590
326.38415527;2.90196085
326.38830566;2.72549009
326.39239502;2.68627453
326.39239502;2.56862736
326.39645386;2.39215684
326.40054321;2.56862736
326.40466309;2.39215684
326.40466309;2.37254906
326.40875244;2.47058821
326.41284180;2.49019599
326.41696167;2.00000000
326.42114258;1.88235295
326.42514038;1.54901958
326.42514038;1.49019611
326.42929077;1.68627453
326.43331909;1.74509799
326.43743896;1.74509799
326.43743896;2.05882359
326.44149780;2.37254906
326.44561768;2.37254906
326.44973755;2.50980401
326.44973755;2.76470590
326.45382690;2.78431368
326.45791626;3.00000000
326.46200562;4.17647076
326.46609497;3.41176462
326.47024536;3.07843137
326.47024536;3.27450991
326.47430420;2.68627453
326.47839355;1.60784316
326.48251343;0.94117647
326.48251343;0.82352942
326.48660278;1.01960790
326.49063110;1.19607842
326.49478149;1.49019611
326.49478149;1.82352936
326.49884033;2.07843137
326.50299072;2.70588231
326.50704956;2.58823538
326.51116943;3.01960778
326.51531982;2.90196085
326.51531982;2.58823538
326.51934814;2.45098042
326.52346802;2.33333325
326.52755737;2.60784316
326.52755737;2.88235283
326.53167725;2.64705873
326.53576660;2.74509811
326.53982544;2.90196085
326.53982544;2.80392146
326.54394531;2.43137264
326.54812622;2.17647052
326.55212402;2.37254906
326.55618286;2.21568632
326.56033325;2.50980401
326.56033325;2.58823538
326.56439209;2.25490189
326.56851196;2.31372547
326.57260132;2.43137264
326.57260132;2.29411769
326.57672119;2.33333325
326.58074951;2.43137264
326.58493042;2.31372547
326.58493042;2.43137264
326.58898926;2.56862736
326.59307861;2.74509811
326.59716797;3.03921580
326.60134888;3.19607854
326.60540771;3.00000000
326.60540771;3.00000000
326.60983276;3.00000000
326.61355591;2.76470590
326.61767578;2.66666675
326.61767578;2.70588231
326.62176514;2.58823538
326.62585449;2.39215684
326.62994385;2.39215684
326.62994385;2.49019599
326.63406372;2.25490189
326.63815308;2.31372547
326.64230347;2.29411769
326.64636230;2.29411769
326.65045166;2.31372547
326.65045166;2.39215684
326.65454102;2.29411769
326.65859985;2.39215684
326.66271973;2.45098042
326.66271973;2.29411769
326.66680908;2.31372547
326.67092896;2.33333325
326.67501831;2.27450991
326.67501831;2.39215684
326.67910767;2.49019599
326.68322754;2.58823538
326.68728638;2.47058821
326.69140625;2.41176462
326.69549561;2.11764717
326.69549561;2.07843137
326.69958496;2.25490189
326.70370483;2.23529410
326.70779419;2.09803915
326.70779419;2.41176462
326.71188354;2.60784316
326.71594238;2.35294127
326.72012329;2.35294127
326.72012329;2.37254906
326.72415161;2.29411769
326.72830200;2.33333325
326.73236084;2.47058821
326.73648071;2.45098042
326.74057007;2.54901958
326.74057007;2.52941179
326.74468994;2.43137264
326.74896240;2.41176462
326.75286865;2.47058821
326.75286865;2.29411769
326.75692749;2.39215684
326.76104736;2.41176462
326.76516724;2.39215684
326.76516724;2.50980401
326.76925659;3.05882359
326.77334595;3.13725495
326.77743530;2.56862736
326.78149414;2.66666675
326.78567505;1.72549021
326.78567505;1.09803927
326.78970337;1.01960790
326.79379272;1.00000000
326.79885864;1.23529410
326.79885864;1.58823526
326.80200195;1.94117641
326.80606079;2.29411769
326.81021118;2.60784316
326.81021118;2.94117641
326.81436157;2.96078420
326.81842041;2.94117641
326.82247925;2.90196085
326.82656860;2.80392146
326.83068848;2.86274505
326.83068848;3.05882359
326.83477783;3.19607854
326.83886719;2.94117641
326.84301758;2.94117641
326.84301758;2.64705873
326.84704590;2.58823538
326.85116577;2.62745094
326.85531616;2.45098042
326.85531616;2.49019599
326.85934448;2.74509811
326.86346436;2.80392146
326.86755371;2.78431368
326.87164307;2.92156863
326.87576294;2.86274505
326.87576294;3.00000000
326.87985229;3.09803915
326.88394165;2.94117641
326.88803101;2.96078420
326.88803101;3.00000000
326.89212036;2.92156863
326.89620972;2.70588231
326.90032959;2.82352948
326.90032959;2.82352948
326.90441895;2.62745094
326.90850830;2.68627453
326.91259766;2.56862736
326.91668701;2.60784316
326.92083740;2.56862736
326.92083740;2.43137264
326.92486572;2.35294127
326.92898560;2.31372547
326.93310547;2.35294127
326.93310547;2.21568632
326.93719482;2.35294127
326.94131470;2.43137264
326.94537354;2.33333325
326.94537354;2.31372547
326.94946289;2.41176462
326.95358276;2.37254906
326.95764160;2.37254906
326.96176147;2.70588231
326.96591187;2.39215684
326.96591187;2.31372547
326.97061157;2.72549009
326.97399902;2.52941179
326.97814941;2.33333325
326.97814941;2.41176462
326.98223877;2.35294127
326.98632813;2.23529410
326.99047852;2.19607854
326.99047852;2.29411769
326.99453735;1.92156863
326.99865723;1.78431368
327.00274658;1.74509799
327.00680542;1.56862748
327.01092529;1.54901958
327.01092529;1.62745094
327.01501465;1.64705884
327.01913452;1.86274505
327.02319336;2.13725495
327.02319336;2.15686274
327.02731323;2.29411769
327.03137207;2.39215684
327.03552246;2.52941179
327.03552246;2.72549009
327.03958130;2.70588231
327.04370117;2.70588231
327.04779053;2.88235283
327.05187988;2.92156863
327.05596924;2.68627453
327.05596924;2.76470590
327.06008911;2.54901958
327.06414795;2.50980401
327.06829834;2.13725495
327.06829834;2.11764717
327.07235718;1.94117641
327.07644653;1.72549021
327.08056641;1.96078432
327.08056641;2.05882359
327.08468628;1.96078432
327.08877563;2.05882359
327.09286499;2.31372547
327.09692383;2.50980401
327.10107422;2.70588231
327.10107422;2.72549009
327.10516357;2.66666675
327.10922241;2.68627453
327.11334229;2.94117641
327.11334229;2.88235283
327.11740112;2.96078420
327.12149048;3.29411769
327.12564087;4.13725471
327.12564087;3.35294127
327.12969971;3.07843137
327.13381958;3.23529410
327.13790894;2.09803915
327.14202881;1.68627453
327.14611816;1.58823526
327.14611816;1.64705884
327.15017700;1.80392158
327.15432739;1.72549021
327.15841675;2.19607854
327.15841675;2.47058821
327.16247559;2.52941179
327.16653442;2.70588231
327.17071533;2.82352948
327.17071533;3.00000000
327.17474365;2.92156863
327.17889404;3.01960778
327.18298340;3.01960778
327.18704224;3.05882359
327.19116211;3.07843137
327.19116211;2.94117641
327.19531250;2.88235283
327.19937134;2.94117641
327.20346069;2.82352948
327.20346069;2.68627453
327.20751953;2.70588231
327.21163940;2.78431368
327.21575928;2.70588231
327.21575928;2.80392146
327.21990967;2.76470590
327.22393799;2.60784316
327.22817993;2.35294127
327.23214722;2.23529410
327.23638916;2.09803915
327.23638916;2.19607854
327.24032593;2.37254906
327.24441528;2.23529410
327.24850464;2.27450991
327.24850464;2.37254906
327.25286865;2.25490189
327.25668335;2.00000000
327.26080322;2.15686274
327.26080322;2.35294127
327.26489258;2.27450991
327.26901245;2.49019599
327.27310181;2.78431368
327.27719116;2.92156863
327.28131104;2.80392146
327.28131104;2.54901958
327.28549194;2.43137264
327.28945923;2.27450991
327.29360962;2.17647052
327.29360962;2.05882359
327.29766846;2.25490189
327.30178833;2.29411769
327.30587769;2.17647052
327.30587769;2.31372547
327.30996704;2.31372547
327.31405640;2.07843137
327.31814575;2.17647052
327.32223511;2.11764717
327.32635498;2.13725495
327.32635498;2.33333325
327.33044434;2.66666675
327.33462524;2.80392146
327.33865356;2.52941179
327.33865356;2.70588231
327.34271240;2.62745094
327.34680176;2.35294127
327.35092163;2.00000000
327.35092163;1.64705884
327.35504150;1.84313726
327.35910034;1.96078432
327.36322021;1.74509799
327.36730957;1.90196073
327.37142944;1.94117641
327.37142944;1.82352936
327.37548828;1.86274505
327.37957764;2.03921580
327.38372803;2.13725495
327.38372803;2.19607854
327.38778687;2.33333325
327.39187622;2.47058821
327.39599609;2.43137264
327.39599609;2.66666675
327.40008545;2.84313726
327.40420532;3.19607854
327.40829468;2.56862736
327.41235352;3.01960778
327.41644287;2.80392146
327.41644287;2.27450991
327.42056274;2.33333325
327.42462158;2.15686274
327.42874146;2.15686274
327.42874146;2.47058821
327.43283081;2.47058821
327.43692017;2.52941179
327.44107056;2.58823538
327.44107056;2.62745094
327.44512939;2.78431368
327.44924927;2.74509811
327.45333862;2.76470590
327.45742798;2.88235283
327.46154785;3.09803915
327.46154785;2.86274505
327.46560669;2.90196085
327.46972656;3.11764717
327.47381592;3.03921580
327.47381592;3.05882359
327.47790527;3.05882359
327.48196411;3.17647052
327.48611450;2.86274505
327.48611450;2.88235283
327.49020386;2.94117641
327.49429321;2.64705873
327.49838257;2.70588231
327.50250244;2.66666675
327.50659180;2.66666675
327.50659180;2.52941179
327.51068115;2.47058821
327.51489258;2.23529410
327.51889038;2.41176462
327.51889038;2.58823538
327.52294922;2.60784316
327.52703857;2.52941179
327.53115845;2.70588231
327.53115845;2.74509811
327.53533936;2.58823538
327.53936768;2.70588231
327.54345703;3.01960778
327.54751587;2.88235283
327.55166626;2.98039222
327.55166626;2.92156863
327.55572510;2.70588231
327.55984497;2.41176462
327.56393433;2.25490189
327.56393433;2.09803915
327.56802368;2.05882359
327.57211304;2.23529410
327.57623291;2.13725495
327.57623291;2.31372547
327.58029175;2.50980401
327.58450317;2.45098042
327.58853149;2.54901958
327.59262085;2.47058821
327.59671021;2.39215684
327.59671021;2.43137264
327.60079956;2.43137264
327.60488892;2.29411769
327.60937500;2.35294127
327.60937500;2.35294127
327.61309814;2.27450991
327.61718750;2.47058821
327.62130737;2.70588231
327.62130737;2.41176462
327.62533569;2.45098042
327.62948608;2.39215684
327.63354492;1.88235295
327.63766479;1.92156863
327.64175415;2.09803915
327.64175415;1.80392158
327.64584351;1.94117641
327.64990234;1.96078432
327.65408325;1.80392158
327.65408325;2.15686274
327.65814209;2.13725495
327.66223145;2.35294127
327.66635132;2.78431368
327.66635132;2.96078420
327.67044067;2.76470590
327.67453003;2.54901958
327.67861938;2.07843137
327.68273926;1.88235295
327.68682861;1.82352936
327.68682861;1.94117641
327.69091797;2.19607854
327.69500732;2.19607854
327.69912720;2.43137264
327.69912720;2.58823538
327.70321655;2.50980401
327.70730591;2.50980401
327.71142578;2.60784316
327.71142578;2.49019599
327.71548462;2.45098042
327.71963501;2.56862736
327.72369385;2.96078420
327.72778320;2.90196085
327.73187256;2.52941179
327.73187256;2.50980401
327.73611450;2.62745094
327.74002075;2.15686274
327.74420166;1.80392158
327.74420166;1.60784316
327.74832153;1.88235295
327.75234985;2.31372547
327.75646973;1.84313726
327.75646973;2.17647052
327.76055908;2.43137264
327.76464844;2.25490189
327.76876831;2.41176462
327.77282715;2.37254906
327.77694702;2.39215684
327.77694702;2.66666675
327.78103638;2.74509811
327.78515625;2.68627453
327.78924561;2.84313726
327.78924561;2.96078420
327.79333496;3.09803915
327.79739380;3.35294127
327.80154419;4.03921556
327.80154419;3.35294127
327.80560303;2.72549009
327.80969238;2.92156863
327.81381226;1.35294116
327.81790161;0.90196079
327.82202148;1.23529410
327.82202148;1.29411769
327.82608032;1.52941179
327.83016968;1.80392158
327.83435059;2.03921580
327.83435059;2.27450991
327.83837891;2.54901958
327.84246826;2.70588231
327.84658813;2.74509811
327.84658813;2.88235283
327.85067749;3.01960778
327.85479736;2.86274505
327.85888672;2.98039222
327.86294556;2.82352948
327.86709595;2.76470590
327.86709595;2.76470590
327.87115479;2.72549009
327.87521362;2.72549009
327.87936401;2.90196085
327.87936401;2.88235283
327.88342285;2.70588231
327.88754272;2.72549009
327.89166260;2.68627453
327.89166260;2.49019599
327.89572144;2.41176462
327.89984131;2.47058821
327.90396118;2.41176462
327.90802002;2.54901958
327.91213989;2.74509811
327.91213989;2.58823538
327.91619873;2.66666675
327.92031860;2.70588231
327.92440796;2.60784316
327.92440796;2.92156863
327.92849731;2.82352948
327.93258667;2.49019599
327.93679810;2.64705873
327.93679810;2.76470590
327.94079590;2.45098042
327.94491577;2.21568632
327.94897461;2.11764717
327.95309448;1.96078432
327.95718384;1.78431368
327.95718384;1.84313726
327.96130371;1.84313726
327.96536255;1.74509799
327.96951294;1.84313726
327.96951294;2.01960778
327.97354126;2.00000000
327.97766113;2.19607854
327.98175049;2.37254906
327.98175049;2.29411769
327.98587036;2.41176462
327.98995972;2.43137264
327.99404907;2.37254906
327.99813843;2.31372547
328.00231934;2.23529410
328.00231934;2.09803915
328.00631714;2.09803915
328.01043701;2.09803915
328.01455688;1.92156863
328.01455688;1.84313726
328.01864624;2.13725495
328.02270508;2.35294127
328.02682495;2.45098042
328.02682495;1.96078432
328.03091431;2.35294127
328.03503418;2.37254906
328.03909302;2.41176462
328.04321289;2.43137264
328.04730225;2.68627453
328.04730225;3.00000000
328.05142212;3.23529410
328.05548096;3.13725495
328.05960083;3.29411769
328.05960083;3.41176462
328.06369019;3.17647052
328.06781006;3.13725495
328.07186890;3.33333325
328.07186890;3.15686274
328.07598877;3.07843137
328.08007813;3.05882359
328.08422852;2.60784316
328.08831787;2.66666675
328.09240723;2.76470590
328.09240723;2.60784316
328.09646606;2.72549009
328.10055542;2.80392146
328.10467529;2.45098042
328.10467529;1.88235295
328.10873413;2.09803915
328.11282349;1.90196073
328.11694336;2.00000000
328.11694336;2.11764717
328.12103271;2.62745094
328.12512207;2.68627453
328.12924194;2.68627453
328.13333130;2.64705873
328.13745117;2.88235283
328.13745117;3.13725495
328.14151001;3.01960778
328.14559937;3.05882359
328.14971924;2.82352948
328.14971924;2.60784316
328.15383911;2.23529410
328.15786743;2.31372547
328.16201782;2.29411769
328.16201782;2.23529410
328.16607666;2.52941179
328.17022705;2.27450991
328.17434692;2.19607854
328.17837524;2.27450991
328.18249512;2.21568632
328.18249512;2.09803915
328.18658447;2.25490189
328.19064331;2.43137264
328.19476318;2.21568632
