Time;Amplitude
354.58770752;2.58823538
354.59182739;2.52941179
354.59182739;2.74509811
354.59594727;2.84313726
354.59997559;2.84313726
354.60409546;3.58823538
354.60815430;3.49019599
354.61230469;3.66666675
354.61230469;3.29411769
354.61636353;2.84313726
354.62045288;2.33333325
354.62457275;1.78431368
354.62457275;1.66666663
354.62866211;1.49019611
354.63275146;1.70588231
354.63687134;1.94117641
354.63687134;2.21568632
354.64093018;2.43137264
354.64505005;2.66666675
354.64913940;2.72549009
354.65328979;2.86274505
354.65734863;2.94117641
354.65734863;2.74509811
354.66146851;2.76470590
354.66552734;2.49019599
354.66964722;2.17647052
354.66964722;2.35294127
354.67370605;2.45098042
354.67779541;2.31372547
354.68191528;2.47058821
354.68191528;3.05882359
354.68600464;3.33333325
354.69012451;3.37254906
354.69421387;3.43137264
354.69827271;3.33333325
354.70242310;2.88235283
354.70242310;2.76470590
354.70648193;2.58823538
354.71057129;2.47058821
354.71469116;2.35294127
354.71469116;2.64705873
354.71875000;2.33333325
354.72286987;2.37254906
354.72702026;2.52941179
354.72702026;2.60784316
354.73107910;2.76470590
354.73519897;2.60784316
354.73928833;2.54901958
354.74340820;2.23529410
354.74746704;1.88235295
354.74746704;1.35294116
354.75152588;1.23529410
354.75561523;1.27450979
354.75973511;1.27450979
354.75973511;1.43137252
354.76382446;1.60784316
354.76788330;1.78431368
354.77203369;1.88235295
354.77203369;2.52941179
354.77621460;2.88235283
354.78018188;3.01960778
354.78430176;3.49019599
354.78839111;3.25490189
354.79251099;2.96078420
354.79251099;2.74509811
354.79663086;2.43137264
354.80072021;2.11764717
354.80480957;2.03921580
354.80480957;2.21568632
354.80886841;2.23529410
354.81298828;2.29411769
354.81707764;2.58823538
354.81707764;2.72549009
354.82116699;2.37254906
354.82531738;2.45098042
354.82937622;1.92156863
354.83346558;2.11764717
354.83758545;2.11764717
354.83758545;1.80392158
354.84164429;2.11764717
354.84576416;2.15686274
354.84985352;2.05882359
354.84985352;1.84313726
354.85397339;1.84313726
354.85800171;1.82352936
354.86215210;1.62745094
354.86215210;1.50980389
354.86627197;1.96078432
354.87033081;2.05882359
354.87442017;2.90196085
354.87854004;3.41176462
354.88262939;3.68627453
354.88262939;3.86274505
354.88671875;3.84313726
354.89080811;3.58823538
354.89492798;3.60784316
354.89492798;3.47058821
354.89901733;3.17647052
354.90310669;3.03921580
354.90719604;2.96078420
354.90719604;2.80392146
354.91131592;2.76470590
354.91540527;2.66666675
354.91949463;2.47058821
354.92358398;2.58823538
354.92773438;2.60784316
354.92773438;2.17647052
354.93179321;2.35294127
354.93585205;2.31372547
354.93997192;2.03921580
354.93997192;1.82352936
354.94406128;1.90196073
354.94815063;1.90196073
354.95227051;1.88235295
354.95227051;1.68627453
354.95635986;1.43137252
354.96047974;1.21568632
354.96456909;1.43137252
354.96868896;1.35294116
354.97274780;2.09803915
354.97274780;2.80392146
354.97683716;3.33333325
354.98092651;3.45098042
354.98510742;3.41176462
354.98510742;3.39215684
354.98913574;3.00000000
354.99319458;2.88235283
354.99734497;2.62745094
354.99734497;2.33333325
355.00140381;2.17647052
355.00549316;2.25490189
355.00961304;2.19607854
355.01370239;2.27450991
355.01779175;2.21568632
355.01779175;2.37254906
355.02191162;2.74509811
355.02609253;2.92156863
355.03012085;2.50980401
355.03012085;2.74509811
355.03417969;2.84313726
355.03826904;2.21568632
355.04238892;1.90196073
355.04238892;1.68627453
355.04647827;1.25490201
355.05056763;1.23529410
355.05468750;1.92156863
355.05877686;2.23529410
355.06289673;2.72549009
355.06289673;3.29411769
355.06695557;3.56862736
355.07104492;3.60784316
355.07522583;3.64705873
355.07522583;3.54901958
355.07928467;3.49019599
355.08334351;3.50980401
355.08746338;3.54901958
355.08746338;3.39215684
355.09152222;3.49019599
355.09567261;3.43137264
355.09973145;3.17647052
355.10382080;3.00000000
355.10794067;2.90196085
355.10794067;2.70588231
355.11199951;2.74509811
355.11611938;2.72549009
355.12026978;2.49019599
355.12026978;2.78431368
355.12429810;3.05882359
355.12841797;2.31372547
355.13250732;2.31372547
355.13250732;2.49019599
355.13662720;2.21568632
355.14071655;2.03921580
355.14480591;2.39215684
355.14889526;2.60784316
355.15301514;2.68627453
355.15301514;2.62745094
355.15707397;2.64705873
355.16122437;2.70588231
355.16528320;2.50980401
355.16528320;2.39215684
355.16934204;2.19607854
355.17346191;2.39215684
355.17758179;2.47058821
355.17758179;2.64705873
355.18167114;2.84313726
355.18576050;2.72549009
355.18991089;2.60784316
355.19396973;2.45098042
355.19805908;2.05882359
355.19805908;1.54901958
355.20214844;1.41176474
355.20626831;1.58823526
355.21035767;1.58823526
355.21035767;1.86274505
355.21441650;1.96078432
355.21847534;2.17647052
355.22262573;2.25490189
355.22262573;2.01960778
355.22683716;2.35294127
355.23086548;2.25490189
355.23492432;2.68627453
355.23901367;3.05882359
355.24325562;2.92156863
355.24325562;3.31372547
355.24716187;3.49019599
355.25125122;2.86274505
355.25540161;2.76470590
355.25540161;2.78431368
355.25949097;2.27450991
355.26358032;2.00000000
355.26770020;2.13725495
355.26770020;1.98039210
355.27178955;2.39215684
355.27593994;2.84313726
355.27999878;2.88235283
355.28405762;3.07843137
355.28817749;3.23529410
355.28817749;2.74509811
355.29229736;2.50980401
355.29638672;2.35294127
355.30044556;2.01960778
355.30044556;1.88235295
355.30459595;1.80392158
355.30868530;1.68627453
355.31277466;1.82352936
355.31277466;2.21568632
355.31683350;2.45098042
355.32095337;2.52941179
355.32510376;2.92156863
355.32913208;2.70588231
355.33328247;2.86274505
355.33328247;3.07843137
355.33731079;2.98039222
355.34140015;2.80392146
355.34555054;2.94117641
355.34555054;3.03921580
355.34960938;2.84313726
355.35369873;2.80392146
355.35781860;3.15686274
355.35781860;3.21568632
355.36190796;3.00000000
355.36599731;3.09803915
355.37011719;2.60784316
355.37417603;2.52941179
355.37829590;2.47058821
355.37829590;2.31372547
355.38238525;2.00000000
355.38647461;2.45098042
355.39065552;2.47058821
355.39065552;2.80392146
355.39465332;2.58823538
355.39874268;2.39215684
355.40289307;2.43137264
355.40289307;2.35294127
355.40695190;2.01960778
355.41107178;1.74509799
355.41516113;1.74509799
355.41928101;1.82352936
355.42340088;1.82352936
355.42340088;1.88235295
355.42742920;1.74509799
355.43154907;1.76470590
355.43566895;1.98039210
355.43566895;1.96078432
355.43972778;2.01960778
355.44378662;2.13725495
355.44793701;2.31372547
355.44793701;2.27450991
355.45199585;2.56862736
355.45614624;2.86274505
355.46032715;2.25490189
355.46432495;2.50980401
355.46841431;2.54901958
355.46841431;2.25490189
355.47250366;2.58823538
355.47662354;2.86274505
355.48071289;3.33333325
355.48071289;3.13725495
355.48477173;3.31372547
355.48886108;2.86274505
355.49298096;2.52941179
355.49298096;2.35294127
355.49710083;2.13725495
355.50119019;2.09803915
355.50527954;2.21568632
355.50527954;2.31372547
355.50936890;2.35294127
355.51348877;2.47058821
355.51348877;2.50980401
355.51754761;2.43137264
355.52166748;2.33333325
355.52575684;2.41176462
355.52575684;2.31372547
355.52984619;2.19607854
355.53390503;2.35294127
355.53805542;2.35294127
355.53805542;2.17647052
355.54214478;2.21568632
355.54629517;2.35294127
355.55035400;2.15686274
355.55035400;2.07843137
355.55441284;2.45098042
355.55853271;2.45098042
355.55853271;2.23529410
355.56262207;2.27450991
355.56671143;2.41176462
355.57083130;2.64705873
355.57083130;2.70588231
355.57498169;2.72549009
355.57901001;2.72549009
355.58312988;2.74509811
355.58312988;2.47058821
355.58718872;2.27450991
355.59130859;1.94117641
355.59542847;1.82352936
355.59948730;1.84313726
355.60360718;2.05882359
355.60360718;2.29411769
355.60769653;2.29411769
355.61175537;2.45098042
355.61587524;2.66666675
355.61587524;2.66666675
355.61996460;2.62745094
355.62405396;2.66666675
355.62817383;2.84313726
355.62817383;2.68627453
355.63229370;2.68627453
355.63638306;2.74509811
355.64047241;2.68627453
355.64047241;2.92156863
355.64456177;3.15686274
355.64865112;3.13725495
355.64865112;3.19607854
355.65270996;3.19607854
355.65682983;3.43137264
355.66098022;2.80392146
355.66098022;2.72549009
355.66503906;2.66666675
355.66906738;2.66666675
355.67330933;2.68627453
355.67330933;3.17647052
355.67730713;3.01960778
355.68142700;2.80392146
355.68554688;2.76470590
355.68554688;2.49019599
355.68960571;2.05882359
355.69369507;1.94117641
355.69369507;1.92156863
355.69781494;1.86274505
355.70190430;2.01960778
355.70602417;2.11764717
355.70602417;2.31372547
355.71011353;2.39215684
355.71417236;2.56862736
355.71829224;2.62745094
355.71829224;2.58823538
355.72238159;2.62745094
355.72647095;2.52941179
355.73059082;2.17647052
355.73059082;2.25490189
355.73464966;2.27450991
355.73876953;2.45098042
355.73876953;2.66666675
355.74304199;2.68627453
355.74697876;2.92156863
355.75103760;3.33333325
355.75103760;3.07843137
355.75515747;2.98039222
355.75927734;2.90196085
355.76336670;2.72549009
355.76336670;2.58823538
355.76742554;2.49019599
355.77154541;2.33333325
355.77566528;2.27450991
355.77566528;2.23529410
355.77981567;2.13725495
355.78384399;2.19607854
355.78384399;2.33333325
355.78793335;2.27450991
355.79202271;2.39215684
355.79620361;2.45098042
355.79620361;2.41176462
355.80020142;2.39215684
355.80432129;2.39215684
355.80841064;2.56862736
355.80841064;2.31372547
355.81250000;2.45098042
355.81658936;2.54901958
355.82070923;2.39215684
355.82070923;2.37254906
355.82482910;2.47058821
355.82891846;2.21568632
355.82891846;2.27450991
355.83297729;2.07843137
355.83709717;2.27450991
355.84118652;1.92156863
355.84118652;1.78431368
355.84530640;2.00000000
355.84936523;1.74509799
355.85348511;1.76470590
355.85348511;1.90196073
355.85754395;1.90196073
355.86166382;1.94117641
355.86575317;2.05882359
355.86575317;2.33333325
355.86984253;2.39215684
355.87396240;2.66666675
355.87396240;2.94117641
355.87802124;2.72549009
355.88214111;2.66666675
355.88629150;2.80392146
355.88629150;2.56862736
355.89031982;2.23529410
355.89443970;2.23529410
355.89852905;2.23529410
355.89852905;2.29411769
355.90261841;2.25490189
355.90667725;2.39215684
355.91085815;2.45098042
355.91085815;2.49019599
355.91491699;2.52941179
355.91900635;2.13725495
355.91900635;2.07843137
355.92309570;2.09803915
355.92721558;1.90196073
355.93130493;1.70588231
355.93130493;1.90196073
355.93539429;2.17647052
355.93948364;1.86274505
355.94360352;2.19607854
355.94360352;2.33333325
355.94766235;2.25490189
355.95178223;2.31372547
355.95590210;2.39215684
355.95590210;2.66666675
355.95999146;2.86274505
355.96408081;3.00000000
355.96408081;3.21568632
355.96817017;3.23529410
355.97229004;3.25490189
355.97637939;3.41176462
355.97637939;3.21568632
355.98043823;3.13725495
355.98455811;3.15686274
355.98864746;2.94117641
355.98864746;2.70588231
355.99273682;3.03921580
355.99682617;3.25490189
356.00094604;3.01960778
356.00094604;2.56862736
356.00503540;2.78431368
356.00912476;2.47058821
356.00912476;1.98039210
356.01327515;1.58823526
356.01730347;1.45098042
356.02142334;1.49019611
356.02142334;1.66666663
356.02551270;1.82352936
356.02960205;2.11764717
356.03372192;2.37254906
356.03372192;2.74509811
356.03781128;2.82352948
356.04193115;2.74509811
356.04602051;2.96078420
356.04602051;3.15686274
356.05007935;2.58823538
356.05419922;2.52941179
356.05419922;2.56862736
356.05828857;2.17647052
356.06237793;2.00000000
356.06649780;1.96078432
356.06649780;1.98039210
356.07058716;2.33333325
356.07473755;2.60784316
356.07879639;2.64705873
356.07879639;2.74509811
356.08285522;2.96078420
356.08694458;2.76470590
356.09106445;2.56862736
356.09106445;2.66666675
356.09518433;2.62745094
356.09927368;2.45098042
356.09927368;2.47058821
356.10333252;2.49019599
356.10742188;2.52941179
356.11157227;2.19607854
356.11157227;2.05882359
356.11563110;1.84313726
356.11972046;1.66666663
356.12384033;1.45098042
356.12384033;1.60784316
356.12792969;1.41176474
356.13201904;1.98039210
356.13613892;2.49019599
356.13613892;2.70588231
356.14019775;2.60784316
356.14431763;2.76470590
356.14431763;3.21568632
356.14837646;2.86274505
356.15252686;2.68627453
356.15664673;2.84313726
356.15664673;2.58823538
356.16070557;2.39215684
356.16479492;2.33333325
356.16891479;2.07843137
356.16891479;2.15686274
356.17297363;2.25490189
356.17709351;2.15686274
356.18118286;2.09803915
356.18118286;2.13725495
356.18527222;2.05882359
356.18939209;1.88235295
356.18939209;1.78431368
356.19345093;1.96078432
356.19757080;1.68627453
356.20175171;1.76470590
356.20175171;1.70588231
356.20574951;1.66666663
356.20983887;2.00000000
356.21395874;2.03921580
356.21395874;2.27450991
356.21801758;2.15686274
356.22213745;2.25490189
356.22644043;2.49019599
356.22644043;2.37254906
356.23046875;2.29411769
356.23449707;2.62745094
356.23449707;2.90196085
356.23855591;2.92156863
356.24267578;3.03921580
356.24673462;3.21568632
356.24673462;3.11764717
356.25079346;3.00000000
356.25491333;3.07843137
356.25903320;2.88235283
356.25903320;2.68627453
356.26312256;2.64705873
356.26721191;2.58823538
356.27130127;2.54901958
356.27130127;3.05882359
356.27539063;2.96078420
356.27951050;2.92156863
356.27951050;3.13725495
356.28356934;3.09803915
356.28768921;2.94117641
356.29177856;2.39215684
356.29177856;2.21568632
356.29589844;2.27450991
356.29995728;1.92156863
356.30407715;1.86274505
356.30407715;1.84313726
356.30816650;1.98039210
356.31228638;2.25490189
356.31637573;2.56862736
356.31637573;2.74509811
356.32046509;3.11764717
356.32458496;3.35294127
356.32458496;3.58823538
356.32864380;3.64705873
356.33273315;3.80392146
356.33688354;3.90196085
356.33688354;3.76470590
356.34094238;3.52941179
356.34506226;3.58823538
356.34915161;3.56862736
356.34915161;3.49019599
356.35327148;3.13725495
356.35729980;2.92156863
356.36145020;2.80392146
356.36145020;2.52941179
356.36550903;2.29411769
356.36959839;2.27450991
356.36959839;2.52941179
356.37371826;2.86274505
356.37777710;3.03921580
356.38192749;3.15686274
356.38192749;3.23529410
356.38598633;3.23529410
356.39007568;2.68627453
356.39422607;2.80392146
356.39422607;2.54901958
356.39828491;2.19607854
356.40237427;2.21568632
356.40652466;2.21568632
356.40652466;2.33333325
356.41058350;2.35294127
356.41470337;2.47058821
356.41470337;2.74509811
356.41876221;2.52941179
356.42285156;2.66666675
356.42697144;2.68627453
356.42697144;2.11764717
356.43103027;2.05882359
356.43511963;2.09803915
356.43930054;1.98039210
356.43930054;1.92156863
356.44366455;1.70588231
356.44741821;1.68627453
356.45156860;1.31372547
356.45156860;1.35294116
356.45562744;1.50980389
356.45974731;1.50980389
356.45974731;1.64705884
356.46383667;2.31372547
356.46789551;2.60784316
356.47201538;2.92156863
356.47201538;3.13725495
356.47613525;3.01960778
356.48019409;2.88235283
356.48431396;2.78431368
356.48431396;2.72549009
356.48840332;2.76470590
356.49267578;2.62745094
356.49661255;2.56862736
356.49661255;2.56862736
356.50067139;2.52941179
356.50479126;2.49019599
356.50479126;2.76470590
356.50888062;2.76470590
356.51296997;2.66666675
356.51708984;2.96078420
356.51708984;2.50980401
356.52117920;2.17647052
356.52529907;1.72549021
356.52938843;1.13725495
356.52938843;1.00000000
356.53347778;1.17647064
356.53756714;1.15686274
356.54168701;1.25490201
356.54168701;1.72549021
356.54571533;2.13725495
356.54986572;2.25490189
356.54986572;2.47058821
356.55392456;2.70588231
356.55801392;2.80392146
356.56216431;2.94117641
356.56216431;2.98039222
356.56628418;2.98039222
356.57034302;2.98039222
356.57443237;3.19607854
356.57443237;3.23529410
356.57852173;3.27450991
356.58261108;3.29411769
356.58673096;3.41176462
356.58673096;3.50980401
356.59082031;3.37254906
356.59494019;3.25490189
356.59494019;2.86274505
356.59899902;2.60784316
356.60311890;2.31372547
356.60720825;1.90196073
356.60720825;1.31372547
356.61178589;1.33333337
356.61538696;1.35294116
356.61950684;1.31372547
356.61950684;1.39215684
356.62365723;1.64705884
356.62768555;1.96078432
356.63177490;2.13725495
356.63177490;2.45098042
356.63586426;2.70588231
356.63998413;2.84313726
356.63998413;3.05882359
356.64407349;3.15686274
356.64816284;3.15686274
356.65228271;3.23529410
356.65228271;3.29411769
356.65637207;3.25490189
356.66043091;3.05882359
356.66455078;2.94117641
356.66455078;3.00000000
356.66864014;2.74509811
356.67272949;2.70588231
356.67684937;2.43137264
356.67684937;2.49019599
356.68096924;2.50980401
356.68505859;2.43137264
356.68505859;2.45098042
356.68914795;2.47058821
356.69329834;2.66666675
356.69732666;2.54901958
356.69732666;2.17647052
356.70141602;2.01960778
356.70550537;1.92156863
356.70962524;1.45098042
356.70962524;1.47058821
356.71371460;1.56862748
356.71774292;1.64705884
356.72192383;1.64705884
356.72192383;1.66666663
356.72610474;1.96078432
356.73013306;1.92156863
356.73013306;2.17647052
356.73419189;2.29411769
356.73828125;2.21568632
356.74246216;2.39215684
356.74246216;2.37254906
356.74649048;2.41176462
356.75057983;2.31372547
356.75469971;2.41176462
356.75469971;2.45098042
356.75875854;2.25490189
356.76293945;2.33333325
356.76699829;2.54901958
356.76699829;2.58823538
356.77105713;2.88235283
356.77517700;2.90196085
356.77517700;2.96078420
356.77951050;2.94117641
356.78332520;2.84313726
356.78744507;2.76470590
356.78744507;2.35294127
356.79153442;2.37254906
356.79565430;2.33333325
356.79974365;2.17647052
356.79974365;2.09803915
356.80383301;2.13725495
356.80792236;2.09803915
356.81204224;2.05882359
356.81204224;2.35294127
356.81610107;2.49019599
356.82028198;2.33333325
356.82028198;2.21568632
356.82431030;2.29411769
356.82836914;2.39215684
356.83251953;2.35294127
356.83251953;2.43137264
356.83657837;2.50980401
356.84069824;2.80392146
356.84481812;3.11764717
356.84481812;3.17647052
356.85025024;2.84313726
356.85299683;3.13725495
356.85708618;3.15686274
356.85708618;2.74509811
356.86117554;2.66666675
356.86529541;2.72549009
356.86529541;2.70588231
356.86935425;2.62745094
356.87347412;2.80392146
356.87756348;2.92156863
356.87756348;2.72549009
356.88165283;2.74509811
356.88571167;2.45098042
356.88986206;2.19607854
356.88986206;2.07843137
356.89392090;2.01960778
356.89801025;1.78431368
356.90216064;1.76470590
356.90216064;1.96078432
356.90628052;1.96078432
356.91043091;1.92156863
356.91043091;2.01960778
356.91442871;2.15686274
356.91848755;2.09803915
356.92263794;1.98039210
356.92263794;2.07843137
356.92669678;2.17647052
356.93078613;2.13725495
356.93490601;2.27450991
356.93490601;2.41176462
356.93899536;2.60784316
356.94305420;2.66666675
356.94720459;2.64705873
356.94720459;2.49019599
356.95129395;2.21568632
356.95541382;2.31372547
356.95541382;2.09803915
356.95947266;2.05882359
356.96359253;2.31372547
356.96768188;2.80392146
356.96768188;3.07843137
356.97177124;3.50980401
356.97589111;3.52941179
356.97998047;3.45098042
356.97998047;3.33333325
356.98403931;3.07843137
356.98815918;2.92156863
356.99243164;2.29411769
356.99243164;2.19607854
356.99636841;1.94117641
357.00045776;1.64705884
357.00045776;1.66666663
357.00457764;1.80392158
357.00897217;1.86274505
357.01275635;2.07843137
357.01275635;2.37254906
357.01681519;2.45098042
357.02099609;2.47058821
357.02508545;2.50980401
357.02508545;2.68627453
357.02914429;2.43137264
357.03317261;2.82352948
357.03732300;2.66666675
357.03732300;2.27450991
357.04141235;2.58823538
357.04559326;2.68627453
357.04559326;2.50980401
357.04959106;2.23529410
357.05364990;2.70588231
357.05783081;2.82352948
357.05783081;2.82352948
357.06188965;3.00000000
357.06597900;2.98039222
357.07009888;3.00000000
357.07009888;3.01960778
357.07415771;3.05882359
357.07827759;2.96078420
357.08239746;2.84313726
357.08239746;2.70588231
357.08648682;2.70588231
357.09057617;2.62745094
357.09057617;2.60784316
357.09466553;2.62745094
357.09875488;2.41176462
357.10290527;2.33333325
357.10290527;2.21568632
357.10696411;2.00000000
357.11105347;1.84313726
357.11517334;1.68627453
357.11517334;1.88235295
357.11929321;2.01960778
357.12332153;2.27450991
357.12744141;2.64705873
357.12744141;3.01960778
357.13153076;3.01960778
357.13562012;3.23529410
357.13562012;3.47058821
357.13973999;2.96078420
357.14382935;3.01960778
357.14794922;3.09803915
357.14794922;2.76470590
357.15200806;2.64705873
357.15609741;2.64705873
357.16024780;2.25490189
357.16024780;2.15686274
357.16430664;1.96078432
357.16839600;1.86274505
357.17251587;1.86274505
357.17251587;1.98039210
357.17660522;2.09803915
357.18072510;1.92156863
357.18072510;1.96078432
357.18478394;2.05882359
357.18887329;2.00000000
357.19299316;2.21568632
357.19299316;2.35294127
357.19708252;2.37254906
357.20114136;2.45098042
357.20529175;2.49019599
357.20529175;2.60784316
357.20938110;2.58823538
357.21343994;2.58823538
357.21759033;2.56862736
357.21759033;2.62745094
357.22174072;2.54901958
357.22586060;2.54901958
357.22586060;2.43137264
357.22998047;2.62745094
357.23400879;2.62745094
357.23809814;2.56862736
357.23809814;2.70588231
357.24215698;2.56862736
357.24627686;2.88235283
357.25033569;2.74509811
357.25033569;2.84313726
357.25442505;3.19607854
357.25848389;2.74509811
357.26263428;2.76470590
357.26263428;2.62745094
357.26669312;2.29411769
357.27084351;1.98039210
357.27084351;1.84313726
357.27490234;1.74509799
357.27896118;1.50980389
357.28311157;1.66666663
357.28311157;1.82352936
357.28717041;1.74509799
357.29129028;1.96078432
357.29541016;2.07843137
357.29541016;2.21568632
357.29946899;2.31372547
357.30358887;2.33333325
357.30773926;2.54901958
357.30773926;2.68627453
357.31179810;2.80392146
357.31588745;3.11764717
357.31588745;2.76470590
357.31994629;2.80392146
357.32406616;2.54901958
357.32815552;2.27450991
357.32815552;1.98039210
357.33227539;1.86274505
357.33636475;1.88235295
357.34045410;1.84313726
357.34045410;2.01960778
357.34457397;2.01960778
357.34863281;2.05882359
357.35275269;2.13725495
357.35275269;2.33333325
357.35684204;2.29411769
357.36093140;2.07843137
357.36093140;2.15686274
357.36502075;2.31372547
357.36911011;2.25490189
357.37329102;2.41176462
357.37329102;2.72549009
357.37728882;2.60784316
357.38140869;2.74509811
357.38549805;2.74509811
357.38549805;2.80392146
357.38961792;2.86274505
357.39367676;2.43137264
357.39779663;2.84313726
357.39779663;2.88235283
357.40188599;2.68627453
357.40600586;3.05882359
357.40600586;2.80392146
357.41012573;3.37254906
357.41415405;3.56862736
357.41827393;3.29411769
357.41827393;3.29411769
357.42236328;3.39215684
357.42645264;3.01960778
357.43057251;3.09803915
357.43057251;2.92156863
357.43466187;2.70588231
357.43875122;2.60784316
357.44290161;2.54901958
357.44290161;2.31372547
357.44696045;2.33333325
357.45104980;2.27450991
357.45104980;2.70588231
357.45516968;2.78431368
357.45932007;2.80392146
357.46334839;3.17647052
357.46334839;3.33333325
357.46743774;3.27450991
357.47152710;3.37254906
357.47579956;3.33333325
357.47579956;2.98039222
357.47973633;3.05882359
357.48379517;3.13725495
357.48791504;3.05882359
357.48791504;2.76470590
357.49200439;3.05882359
357.49612427;2.76470590
357.49612427;2.58823538
357.50021362;2.23529410
357.50430298;2.29411769
357.50839233;2.01960778
357.50839233;1.74509799
357.51248169;2.03921580
357.51657104;2.09803915
357.52075195;2.05882359
357.52075195;2.03921580
357.52478027;2.11764717
357.52890015;2.01960778
357.53298950;1.90196073
357.53298950;2.35294127
357.53707886;2.19607854
357.54119873;2.29411769
357.54119873;2.54901958
357.54528809;3.03921580
357.54934692;2.84313726
357.55346680;2.64705873
357.55346680;2.49019599
357.55758667;2.33333325
357.56167603;1.82352936
357.56576538;1.37254906
357.56576538;1.39215684
357.56982422;1.05882359
357.57394409;1.45098042
357.57806396;1.41176474
357.57806396;1.56862748
357.58212280;1.64705884
357.58627319;1.74509799
357.58627319;1.76470590
357.59033203;1.74509799
357.59445190;1.92156863
357.59854126;1.86274505
357.59854126;1.76470590
357.60260010;2.11764717
357.60668945;2.21568632
357.61105347;1.78431368
357.61105347;2.17647052
357.61489868;2.29411769
357.61898804;1.80392158
357.62310791;1.94117641
357.62310791;1.92156863
357.62719727;1.78431368
357.63131714;1.92156863
357.63131714;2.15686274
357.63537598;2.39215684
357.63949585;2.17647052
357.64358521;2.15686274
357.64358521;2.27450991
357.64767456;2.29411769
357.65173340;2.35294127
357.65588379;2.66666675
357.65588379;2.58823538
357.65997314;2.84313726
357.66406250;2.90196085
357.66815186;2.76470590
357.66815186;2.54901958
357.67230225;2.50980401
357.67636108;2.41176462
357.67636108;2.29411769
357.68045044;2.13725495
357.68450928;2.31372547
357.68865967;2.19607854
357.68865967;2.17647052
357.69271851;2.49019599
357.69683838;2.35294127
357.70092773;2.54901958
357.70092773;2.27450991
357.70501709;2.23529410
357.70910645;2.05882359
357.71328735;1.64705884
357.71328735;1.07843137
357.71731567;1.23529410
357.72143555;1.52941179
357.72143555;1.62745094
357.72561646;2.09803915
357.72961426;2.76470590
357.73373413;3.43137264
357.73373413;3.64705873
357.73776245;3.50980401
357.74188232;3.56862736
357.74603271;3.43137264
357.74603271;3.23529410
357.75009155;3.17647052
357.75418091;3.07843137
357.75830078;3.15686274
357.75830078;3.15686274
357.76239014;3.23529410
357.76647949;3.03921580
357.76647949;3.07843137
357.77056885;3.29411769
357.77468872;2.92156863
357.77880859;2.96078420
357.77880859;2.70588231
357.78286743;2.60784316
357.78695679;2.56862736
357.79107666;2.33333325
357.79107666;2.39215684
357.79519653;2.43137264
357.79928589;2.37254906
357.80337524;2.47058821
357.80337524;2.49019599
357.80746460;2.47058821
357.81152344;2.50980401
357.81152344;2.60784316
357.81564331;2.35294127
357.81970215;2.37254906
357.82382202;2.72549009
357.82382202;2.94117641
357.82791138;3.15686274
357.83200073;3.62745094
357.83612061;4.05882359
357.83612061;3.80392146
357.84020996;3.74509811
357.84429932;3.15686274
357.84841919;2.76470590
357.84841919;2.13725495
357.85247803;2.11764717
357.85659790;2.00000000
357.85659790;1.98039210
357.86068726;2.05882359
357.86477661;2.23529410
357.86889648;2.13725495
357.86889648;2.09803915
357.87298584;2.19607854
357.87704468;2.45098042
357.88119507;2.31372547
357.88119507;2.64705873
357.88528442;2.68627453
357.88937378;2.74509811
357.89349365;2.92156863
357.89349365;2.98039222
357.89755249;2.88235283
357.90167236;2.72549009
357.90167236;2.62745094
357.90576172;2.47058821
357.90985107;2.54901958
357.91397095;2.58823538
357.91397095;2.35294127
357.91802979;2.29411769
357.92211914;2.50980401
357.92626953;2.13725495
357.92626953;1.96078432
357.93032837;1.94117641
357.93441772;2.17647052
357.93853760;2.45098042
357.93853760;2.54901958
357.94259644;2.86274505
357.94671631;3.13725495
357.94671631;2.74509811
357.95080566;2.70588231
357.95489502;2.54901958
357.95901489;2.05882359
357.95901489;1.82352936
357.96310425;1.80392158
357.96716309;2.03921580
357.97131348;1.78431368
357.97131348;1.82352936
357.97552490;2.00000000
357.97949219;1.90196073
357.98367310;2.13725495
357.98367310;2.31372547
357.98767090;2.27450991
357.99179077;2.58823538
357.99179077;2.94117641
357.99584961;2.76470590
357.99993896;2.60784316
358.00408936;2.60784316
358.00408936;2.70588231
358.00814819;2.64705873
358.01226807;2.80392146
358.01635742;3.09803915
358.01635742;2.82352948
358.02044678;2.72549009
358.02456665;2.39215684
358.02865601;2.37254906
358.02865601;2.31372547
358.03271484;2.37254906
358.03683472;2.60784316
358.03683472;2.80392146
358.04092407;3.23529410
358.04501343;3.62745094
358.04913330;3.74509811
358.04913330;3.29411769
358.05322266;3.11764717
358.05737305;3.15686274
358.06143188;2.52941179
358.06143188;1.82352936
358.06549072;1.50980389
358.06954956;1.25490201
358.07369995;1.50980389
358.07369995;1.78431368
358.07778931;1.96078432
358.08193970;2.13725495
358.08193970;2.62745094
358.08596802;3.15686274
358.09005737;3.11764717
358.09420776;3.31372547
358.09420776;3.47058821
358.09826660;3.19607854
358.10232544;3.39215684
358.10647583;3.01960778
358.10647583;2.54901958
358.11056519;2.76470590
358.11465454;2.76470590
358.11877441;2.49019599
358.11877441;2.31372547
358.12286377;2.54901958
358.12695313;2.68627453
358.12695313;2.52941179
358.13104248;2.62745094
358.13513184;2.72549009
358.13931274;2.58823538
358.13931274;2.35294127
358.14334106;2.03921580
358.14743042;1.84313726
358.15151978;1.60784316
358.15151978;1.60784316
358.15563965;1.66666663
358.15969849;1.60784316
358.16381836;1.94117641
358.16381836;2.35294127
358.16790771;2.47058821
358.17202759;2.70588231
358.17202759;3.13725495
358.17611694;3.49019599
358.18020630;3.21568632
358.18429565;3.21568632
358.18429565;3.17647052
358.18841553;3.33333325
358.19247437;3.39215684
358.19659424;3.25490189
358.19659424;3.03921580
358.20068359;3.13725495
358.20477295;2.72549009
358.20889282;2.17647052
358.20889282;1.78431368
358.21298218;1.62745094
358.21710205;1.66666663
358.21710205;1.43137252
358.22116089;1.52941179
358.22558594;1.76470590
358.22946167;1.76470590
358.22946167;2.01960778
358.23358154;2.37254906
358.23760986;2.43137264
358.24169922;2.37254906
358.24169922;2.37254906
358.24575806;2.23529410
358.24984741;1.82352936
358.25396729;2.09803915
358.25396729;2.15686274
358.25802612;2.19607854
358.26217651;2.68627453
358.26217651;3.15686274
358.26629639;3.03921580
358.27032471;3.07843137
358.27444458;2.86274505
358.27444458;2.84313726
358.27853394;2.29411769
358.28262329;2.00000000
358.28674316;2.19607854
358.28674316;2.39215684
358.29080200;2.35294127
358.29489136;2.56862736
358.29901123;2.68627453
358.29901123;2.56862736
358.30307007;2.64705873
358.30725098;2.82352948
358.30725098;2.72549009
358.31127930;2.66666675
358.31539917;2.68627453
358.31948853;2.35294127
358.31948853;2.29411769
358.32360840;2.43137264
358.32769775;1.94117641
358.33178711;1.92156863
358.33178711;1.96078432
358.33584595;1.96078432
358.33996582;1.88235295
358.34411621;1.88235295
358.34411621;1.96078432
358.34817505;2.50980401
358.35229492;2.39215684
358.35229492;2.62745094
358.35632324;2.43137264
358.36047363;1.96078432
358.36456299;1.58823526
358.36456299;1.50980389
358.36862183;0.72549021
358.37274170;1.03921568
358.37683105;1.23529410
358.37683105;1.27450979
358.38092041;1.70588231
358.38497925;2.07843137
358.38912964;2.11764717
358.38912964;2.15686274
358.39321899;2.58823538
358.39736938;2.58823538
358.39736938;2.74509811
358.40139771;2.98039222
358.40548706;3.07843137
358.40966797;3.31372547
358.40966797;3.66666675
358.41372681;3.68627453
358.41775513;3.84313726
358.42190552;3.43137264
358.42190552;3.41176462
358.42599487;3.43137264
358.43008423;3.11764717
358.43414307;2.86274505
358.43414307;2.74509811
358.43832397;2.29411769
358.44241333;2.05882359
358.44241333;1.90196073
358.44647217;1.56862748
358.45056152;1.52941179
358.45468140;1.70588231
358.45468140;2.01960778
358.45877075;1.98039210
358.46282959;2.21568632
358.46694946;2.56862736
358.46694946;2.74509811
358.47103882;2.43137264
358.47528076;2.84313726
358.47927856;2.50980401
358.47927856;2.47058821
358.48339844;2.21568632
358.48742676;2.09803915
358.48742676;1.96078432
358.49154663;2.09803915
358.49563599;2.35294127
358.49972534;2.80392146
358.49972534;3.17647052
358.50381470;3.33333325
358.50790405;3.50980401
358.51202393;2.94117641
358.51202393;3.01960778
358.51611328;2.29411769
358.52020264;1.74509799
358.52432251;1.62745094
358.52432251;1.74509799
358.52841187;1.58823526
358.53250122;1.92156863
358.53250122;2.13725495
358.53659058;2.07843137
358.54067993;2.03921580
358.54479980;2.17647052
358.54479980;2.19607854
358.54885864;2.11764717
358.55297852;2.35294127
358.55706787;2.74509811
358.55706787;2.74509811
358.56115723;2.62745094
358.56527710;3.21568632
358.56936646;2.82352948
358.56936646;2.84313726
358.57348633;2.98039222
358.57757568;2.94117641
358.57757568;2.90196085
358.58166504;2.86274505
358.58575439;2.82352948
358.58984375;2.70588231
358.58984375;2.45098042
358.59399414;2.31372547
358.59802246;2.27450991
358.60214233;2.19607854
358.60214233;2.41176462
358.60629272;2.58823538
358.61029053;2.60784316
358.61441040;2.86274505
358.61441040;2.92156863
358.61849976;2.74509811
358.62261963;2.56862736
358.62261963;2.68627453
358.62670898;2.43137264
358.63079834;2.37254906
358.63488770;2.45098042
358.63488770;2.29411769
358.63897705;2.25490189
358.64309692;2.45098042
358.64721680;2.47058821
358.64721680;2.29411769
358.65127563;2.66666675
358.65536499;2.86274505
358.65948486;3.05882359
358.65948486;3.25490189
358.66357422;3.56862736
358.66769409;3.45098042
358.66769409;3.49019599
358.67175293;3.76470590
358.67584229;3.43137264
358.67999268;2.94117641
358.67999268;2.64705873
358.68405151;2.64705873
358.68814087;2.27450991
358.69229126;2.60784316
358.69229126;2.86274505
358.69631958;2.92156863
358.70043945;2.76470590
358.70455933;2.90196085
358.70455933;2.49019599
358.70864868;1.76470590
358.71276855;1.50980389
358.71276855;1.62745094
358.71682739;1.58823526
358.72088623;1.76470590
358.72521973;1.96078432
358.72521973;1.82352936
358.72909546;1.92156863
358.73321533;1.94117641
358.73733521;1.84313726
358.73733521;1.74509799
358.74142456;2.15686274
358.74554443;2.50980401
358.74960327;2.70588231
358.74960327;2.86274505
358.75369263;3.11764717
358.75781250;3.05882359
358.75781250;3.05882359
358.76187134;2.96078420
358.76599121;2.86274505
358.77008057;2.52941179
358.77008057;2.31372547
358.77420044;2.33333325
358.77828979;2.41176462
358.78247070;2.23529410
358.78247070;2.25490189
358.78646851;2.45098042
358.79058838;2.43137264
358.79470825;2.70588231
358.79470825;2.80392146
358.79876709;2.60784316
358.80285645;3.33333325
358.80285645;3.35294127
358.80694580;2.62745094
358.81106567;2.66666675
358.81515503;2.49019599
358.81515503;1.94117641
358.81930542;1.21568632
358.82333374;0.96078432
358.82745361;1.39215684
358.82745361;1.37254906
358.83154297;1.52941179
358.83557129;1.68627453
358.83972168;1.92156863
358.83972168;2.29411769
358.84381104;2.27450991
358.84793091;2.62745094
358.84793091;2.56862736
358.85198975;2.86274505
358.85610962;2.98039222
358.86022949;2.94117641
358.86022949;3.17647052
358.86431885;3.41176462
358.86834717;3.00000000
358.87249756;3.11764717
358.87249756;2.86274505
358.87658691;2.43137264
358.88067627;1.86274505
358.88476563;1.76470590
358.88476563;1.78431368
358.88888550;1.94117641
358.89297485;2.01960778
358.89297485;2.33333325
358.89706421;2.33333325
358.90115356;2.35294127
358.90527344;2.33333325
358.90527344;2.47058821
358.90936279;2.31372547
358.91345215;2.50980401
358.91754150;2.58823538
358.91754150;2.37254906
358.92166138;2.33333325
358.92575073;2.21568632
358.92987061;1.94117641
358.92987061;2.00000000
358.93392944;2.27450991
358.93804932;2.50980401
358.93804932;2.09803915
358.94213867;2.62745094
358.94616699;2.62745094
358.95034790;2.29411769
358.95034790;2.27450991
358.95440674;2.49019599
358.95852661;2.52941179
358.96261597;2.98039222
358.96261597;3.05882359
358.96670532;2.78431368
358.97082520;3.07843137
358.97494507;2.66666675
358.97494507;2.09803915
358.97900391;1.54901958
358.98309326;1.54901958
358.98309326;1.60784316
358.98718262;1.66666663
358.99127197;1.86274505
358.99539185;2.07843137
358.99539185;2.00000000
358.99948120;1.92156863
359.00354004;2.15686274
359.00769043;2.13725495
359.00769043;2.03921580
359.01177979;2.23529410
359.01586914;2.35294127
359.01998901;2.11764717
359.01998901;2.01960778
359.02404785;2.19607854
359.02816772;2.17647052
359.02816772;2.39215684
359.03228760;2.72549009
359.03634644;3.03921580
359.04049683;3.39215684
359.04049683;3.60784316
359.04455566;3.27450991
359.04867554;2.94117641
359.05273438;2.88235283
359.05273438;2.78431368
359.05682373;2.52941179
359.06097412;2.43137264
359.06503296;2.39215684
359.06503296;2.45098042
359.06909180;2.29411769
359.07327271;2.23529410
359.07327271;2.15686274
359.07730103;1.90196073
359.08142090;1.98039210
359.08551025;2.29411769
359.08551025;2.35294127
359.08959961;2.35294127
359.09371948;2.66666675
359.09780884;2.76470590
359.09780884;2.80392146
359.10186768;2.70588231
359.10595703;3.03921580
359.11007690;3.11764717
359.11007690;3.29411769
359.11416626;3.35294127
359.11828613;3.03921580
359.11828613;2.80392146
359.12234497;2.45098042
359.12646484;2.00000000
359.13058472;1.62745094
359.13058472;1.54901958
359.13464355;1.62745094
359.13876343;1.29411769
359.14285278;1.39215684
359.14285278;1.49019611
359.14694214;1.43137252
359.15103149;1.35294116
359.15515137;1.68627453
359.15515137;1.80392158
359.15930176;1.90196073
359.16336060;2.07843137
359.16336060;2.11764717
359.16741943;1.92156863
359.17147827;1.80392158
359.17562866;1.86274505
359.17562866;1.78431368
359.17971802;1.64705884
359.18380737;1.49019611
359.18792725;1.98039210
359.18792725;2.47058821
359.19201660;3.01960778
359.19610596;3.09803915
359.20022583;3.19607854
359.20022583;3.68627453
359.20431519;3.70588231
359.20840454;3.49019599
359.20840454;3.39215684
359.21249390;3.29411769
359.21658325;3.35294127
359.22067261;3.29411769
359.22067261;3.09803915
359.22494507;3.13725495
359.22897339;2.82352948
359.23300171;2.72549009
359.23300171;2.64705873
359.23706055;2.50980401
359.24114990;2.35294127
359.24526978;2.27450991
359.24526978;2.41176462
359.24945068;2.43137264
359.25344849;2.49019599
359.25344849;2.58823538
359.25756836;2.56862736
359.26165771;2.66666675
359.26574707;2.62745094
359.26574707;2.45098042
359.26983643;2.33333325
359.27392578;2.72549009
359.27807617;2.70588231
359.27807617;2.72549009
359.28213501;2.47058821
359.28628540;2.60784316
359.29037476;2.62745094
359.29037476;2.54901958
359.29443359;2.54901958
359.29855347;2.62745094
359.29855347;2.90196085
359.30261230;2.86274505
359.30670166;3.00000000
359.31082153;2.96078420
359.31082153;3.01960778
359.31488037;2.96078420
359.31896973;2.84313726
359.32312012;2.96078420
359.32312012;3.47058821
359.32714844;3.05882359
359.33126831;3.21568632
359.33538818;3.19607854
359.33538818;3.03921580
359.33947754;2.43137264
359.34359741;2.21568632
359.34359741;2.33333325
359.34768677;2.01960778
359.35174561;2.00000000
359.35589600;2.17647052
359.35589600;2.21568632
359.36004639;2.09803915
359.36404419;2.37254906
359.36816406;2.66666675
359.36816406;2.64705873
359.37228394;3.05882359
359.37634277;3.37254906
359.38046265;3.27450991
359.38046265;3.27450991
359.38452148;3.37254906
359.38864136;2.92156863
359.38864136;2.66666675
359.39276123;2.80392146
359.39685059;2.56862736
359.40093994;2.58823538
359.40093994;2.39215684
359.40499878;2.82352948
359.40911865;2.45098042
359.41326904;2.58823538
359.41326904;2.88235283
359.41729736;2.50980401
359.42141724;2.35294127
359.42553711;2.52941179
359.42553711;2.41176462
359.42965698;2.17647052
359.43374634;1.86274505
359.43374634;2.05882359
359.43786621;1.96078432
359.44189453;1.92156863
359.44638062;2.03921580
359.44638062;1.88235295
359.45013428;2.03921580
359.45419312;2.21568632
359.45831299;2.23529410
359.45831299;2.15686274
359.46237183;2.11764717
359.46646118;2.23529410
359.47061157;2.13725495
359.47061157;2.23529410
359.47470093;2.41176462
359.47875977;2.58823538
359.47875977;3.07843137
359.48284912;2.72549009
359.48696899;3.49019599
359.49105835;3.31372547
359.49105835;3.21568632
359.49511719;3.15686274
359.49926758;3.01960778
359.50338745;3.21568632
359.50338745;2.66666675
359.50744629;2.60784316
359.51153564;2.56862736
359.51562500;2.54901958
359.51562500;2.05882359
359.51971436;1.80392158
359.52383423;1.76470590
359.52383423;1.82352936
359.52792358;1.76470590
359.53201294;1.98039210
359.53610229;2.19607854
359.53610229;2.21568632
359.54022217;2.35294127
359.54428101;2.54901958
359.54840088;2.60784316
359.54840088;2.76470590
359.55249023;2.82352948
359.55657959;2.84313726
359.56066895;2.62745094
359.56066895;2.78431368
359.56478882;2.27450991
359.56887817;2.11764717
359.56887817;2.33333325
359.57296753;2.15686274
359.57705688;2.13725495
359.58117676;2.45098042
359.58117676;2.84313726
359.58529663;3.11764717
359.58935547;3.27450991
359.59347534;3.39215684
359.59347534;3.17647052
359.59753418;2.98039222
359.60162354;2.49019599
359.60574341;2.19607854
359.60574341;1.90196073
359.61004639;1.78431368
359.61395264;1.90196073
359.61395264;1.90196073
359.61804199;2.00000000
359.62213135;2.11764717
359.62628174;2.15686274
359.62628174;2.13725495
359.63031006;2.37254906
359.63439941;2.43137264
359.63851929;2.49019599
359.63851929;2.56862736
359.64260864;2.47058821
359.64669800;2.43137264
359.65081787;2.29411769
359.65081787;2.33333325
359.65490723;2.27450991
359.65905762;1.98039210
359.65905762;2.11764717
359.66308594;2.37254906
359.66714478;2.37254906
359.67129517;2.43137264
359.67129517;2.96078420
359.67538452;2.78431368
359.67947388;2.92156863
359.68356323;2.88235283
359.68356323;2.60784316
359.68765259;2.37254906
359.69174194;2.41176462
359.69589233;2.47058821
359.69589233;2.41176462
359.69995117;2.33333325
359.70407104;2.29411769
359.70407104;2.41176462
359.70816040;2.37254906
359.71228027;2.35294127
359.71633911;2.52941179
359.71633911;2.43137264
359.72042847;2.50980401
359.72457886;2.52941179
359.72866821;2.50980401
359.72866821;2.52941179
359.73272705;2.58823538
359.73678589;2.72549009
359.74093628;2.74509811
359.74093628;2.60784316
359.74502563;2.58823538
359.74914551;2.68627453
359.74914551;2.37254906
359.75320435;1.84313726
359.75729370;1.90196073
359.76141357;2.33333325
359.76141357;1.92156863
359.76550293;2.23529410
359.76956177;2.13725495
359.77374268;2.52941179
359.77374268;2.86274505
359.77780151;2.64705873
359.78253174;2.49019599
359.78598022;2.78431368
359.78598022;2.96078420
359.79013062;2.54901958
359.79418945;2.80392146
359.79418945;2.66666675
359.79827881;2.31372547
359.80233765;2.13725495
359.80648804;2.11764717
359.80648804;2.01960778
359.81057739;2.11764717
359.81466675;2.23529410
359.81878662;2.27450991
359.81878662;2.29411769
359.82287598;2.27450991
359.82693481;2.33333325
359.83105469;2.13725495
359.83105469;2.29411769
359.83514404;2.43137264
359.83926392;2.47058821
359.83926392;2.50980401
359.84335327;2.27450991
359.84744263;2.23529410
359.85324097;2.29411769
359.85324097;2.21568632
359.85562134;2.21568632
359.85971069;2.03921580
359.86383057;2.41176462
359.86383057;2.49019599
359.86788940;2.49019599
359.87200928;2.86274505
359.87609863;2.47058821
359.87609863;2.52941179
359.88021851;2.78431368
359.88430786;2.70588231
359.88430786;2.39215684
359.88839722;2.31372547
359.89248657;2.37254906
359.89660645;2.41176462
359.89660645;2.17647052
359.90069580;2.29411769
359.90478516;2.52941179
359.90890503;2.50980401
359.90890503;2.56862736
359.91299438;2.70588231
359.91705322;2.84313726
359.92117310;2.86274505
359.92117310;2.86274505
359.92532349;2.80392146
359.92938232;2.58823538
359.92938232;2.56862736
359.93347168;2.58823538
359.93753052;2.35294127
359.94165039;2.33333325
359.94165039;2.39215684
359.94570923;2.49019599
359.94985962;2.45098042
359.95394897;2.74509811
359.95394897;3.27450991
359.95803833;3.07843137
359.96212769;3.11764717
359.96630859;3.33333325
359.96630859;3.09803915
359.97036743;2.82352948
359.97445679;2.41176462
359.97445679;2.31372547
359.97848511;2.19607854
359.98260498;1.98039210
359.98672485;2.09803915
359.98672485;2.03921580
359.99078369;2.09803915
359.99490356;2.19607854
359.99899292;2.25490189
359.99899292;2.47058821
360.00308228;2.58823538
360.00714111;2.78431368
360.01382446;2.78431368
360.01382446;2.82352948
360.01538086;2.70588231
360.01947021;2.60784316
360.02359009;2.54901958
360.02767944;2.41176462
360.03176880;2.23529410
360.03176880;2.50980401
360.03585815;2.72549009
360.04000854;2.68627453
360.04406738;2.74509811
360.04406738;3.01960778
360.04815674;2.96078420
360.05227661;3.25490189
360.05633545;3.23529410
360.05633545;2.66666675
360.06042480;2.68627453
360.06454468;2.37254906
360.06863403;1.74509799
360.07272339;1.96078432
360.07684326;1.76470590
360.07684326;1.72549021
360.08093262;2.03921580
360.08499146;2.17647052
360.08914185;2.25490189
360.08914185;2.13725495
360.09323120;2.41176462
360.09729004;2.56862736
360.10140991;2.15686274
360.10140991;2.29411769
360.10549927;2.35294127
360.10961914;2.05882359
360.11367798;1.84313726
360.11779785;1.76470590
360.12188721;1.78431368
360.12188721;1.84313726
360.12597656;1.92156863
360.13006592;2.11764717
360.13418579;2.94117641
360.13418579;2.86274505
360.13827515;2.92156863
360.14236450;3.00000000
360.14648438;2.80392146
360.14648438;2.39215684
360.15054321;2.35294127
360.15484619;2.47058821
360.15881348;2.43137264
360.16284180;2.52941179
360.16696167;2.66666675
360.16696167;2.25490189
360.17108154;2.05882359
360.17514038;2.21568632
360.17929077;2.13725495
360.17929077;1.90196073
360.18331909;2.11764717
360.18737793;2.31372547
360.19152832;2.17647052
360.19152832;2.37254906
360.19561768;2.39215684
360.19973755;2.29411769
360.20379639;2.64705873
360.20791626;2.68627453
360.21200562;2.82352948
360.21200562;3.15686274
360.21609497;2.92156863
360.22015381;3.23529410
360.22433472;3.09803915
360.22433472;2.72549009
360.22857666;2.43137264
360.23251343;2.49019599
360.23660278;2.27450991
360.23660278;1.80392158
360.24069214;2.11764717
360.24478149;2.62745094
360.24887085;2.56862736
360.25292969;3.05882359
360.25708008;3.19607854
360.25708008;2.41176462
360.26113892;2.17647052
360.26528931;2.11764717
360.26937866;1.72549021
360.26937866;1.74509799
360.27343750;1.96078432
360.27755737;1.98039210
360.28164673;2.07843137
360.28164673;2.21568632
360.28573608;2.43137264
360.28985596;2.31372547
360.29394531;2.70588231
360.29803467;2.60784316
360.30212402;2.56862736
360.30212402;2.68627453
360.30627441;2.68627453
360.31030273;2.54901958
360.31442261;2.70588231
360.31442261;2.76470590
360.31851196;2.41176462
360.32260132;2.56862736
360.32672119;2.90196085
360.32672119;2.50980401
360.33081055;2.25490189
360.33489990;2.52941179
360.33898926;2.17647052
360.34310913;2.00000000
360.34719849;2.21568632
360.34719849;2.27450991
360.35128784;1.96078432
360.35537720;2.13725495
360.35949707;1.82352936
360.35949707;1.78431368
360.36358643;1.78431368
360.36764526;1.84313726
360.37179565;1.80392158
360.37179565;1.98039210
360.37585449;2.19607854
360.37997437;2.45098042
360.38406372;2.82352948
360.38815308;2.78431368
360.39230347;3.11764717
360.39230347;3.01960778
360.39633179;2.74509811
360.40042114;2.52941179
360.40454102;2.35294127
360.40454102;2.45098042
360.40866089;2.23529410
360.41271973;2.47058821
360.41680908;2.72549009
360.41680908;2.84313726
360.42089844;3.03921580
360.42504883;3.19607854
360.42910767;3.01960778
360.43319702;2.78431368
360.43728638;2.78431368
360.43728638;2.31372547
360.44140625;2.23529410
360.44546509;2.39215684
360.44961548;2.31372547
360.44961548;2.58823538
360.45367432;2.70588231
360.45782471;2.66666675
360.46191406;2.66666675
360.46191406;2.76470590
360.46597290;2.49019599
360.47006226;2.31372547
360.47421265;2.05882359
360.47827148;1.88235295
360.48239136;1.86274505
360.48239136;1.88235295
360.48645020;1.68627453
360.49057007;1.76470590
360.49465942;2.03921580
360.49465942;2.09803915
360.49874878;2.21568632
360.50280762;2.47058821
360.50692749;2.56862736
360.50692749;2.70588231
360.51101685;2.56862736
360.51513672;2.78431368
360.51928711;2.72549009
360.52334595;2.58823538
360.52743530;2.50980401
360.52743530;2.58823538
360.53152466;2.52941179
360.53564453;2.49019599
360.53973389;2.35294127
360.53973389;2.56862736
360.54382324;3.05882359
360.54791260;2.90196085
360.55200195;2.78431368
360.55200195;3.21568632
360.55609131;2.90196085
360.56021118;2.52941179
360.56427002;2.01960778
360.56835938;1.68627453
360.57250977;1.78431368
360.57250977;1.82352936
360.57656860;1.80392158
360.58068848;1.70588231
360.58477783;2.01960778
360.58477783;2.23529410
360.58889771;2.21568632
360.59298706;2.31372547
360.59707642;2.41176462
360.59707642;2.33333325
360.60116577;2.56862736
360.60528564;2.43137264
360.60940552;2.33333325
360.61343384;2.54901958
360.61755371;2.62745094
360.61755371;2.60784316
360.62164307;2.82352948
360.62573242;2.92156863
360.62985229;3.03921580
360.62985229;3.31372547
360.63391113;3.41176462
360.63803101;3.29411769
360.64212036;3.23529410
360.64212036;3.29411769
360.64627075;3.13725495
360.65032959;2.82352948
360.65441895;2.52941179
360.65853882;2.37254906
360.66259766;2.58823538
360.66259766;2.50980401
360.66668701;2.35294127
360.67074585;2.50980401
360.67492676;2.62745094
360.67492676;2.78431368
360.67898560;2.64705873
360.68307495;2.76470590
360.68728638;2.74509811
360.68728638;2.62745094
360.69128418;2.80392146
360.69540405;3.27450991
360.69946289;3.19607854
360.70352173;3.43137264
360.70767212;3.23529410
360.70767212;2.74509811
360.71176147;2.86274505
360.71585083;2.80392146
360.71994019;2.76470590
360.71994019;2.58823538
360.72409058;2.54901958
360.72814941;2.64705873
360.73226929;2.47058821
360.73226929;2.33333325
360.73632813;2.25490189
360.74047852;2.07843137
360.74456787;2.31372547
360.74865723;2.17647052
360.75274658;2.27450991
360.75274658;2.37254906
360.75683594;2.62745094
360.76089478;2.88235283
360.76504517;2.56862736
360.76504517;2.90196085
360.76910400;2.88235283
360.77328491;2.70588231
360.77731323;2.37254906
360.77731323;1.94117641
360.78140259;1.90196073
360.78549194;2.13725495
360.78961182;1.82352936
360.79370117;2.23529410
360.79782104;2.47058821
360.79782104;2.50980401
360.80187988;2.47058821
360.80596924;2.56862736
360.81008911;2.52941179
360.81008911;2.49019599
360.81417847;2.58823538
360.81826782;2.54901958
360.82238770;2.78431368
360.82238770;2.56862736
360.82647705;2.39215684
360.83059692;2.37254906
360.83468628;2.00000000
360.83874512;1.82352936
360.84289551;1.96078432
360.84289551;2.03921580
360.84692383;2.15686274
360.85104370;2.31372547
360.85516357;2.60784316
360.85516357;2.45098042
360.85928345;2.41176462
360.86331177;2.27450991
360.86743164;2.31372547
360.86743164;1.92156863
360.87152100;1.80392158
360.87564087;1.74509799
360.87973022;1.76470590
360.88381958;1.80392158
360.88790894;2.00000000
360.88790894;1.90196073
360.89199829;2.05882359
360.89605713;2.23529410
360.90020752;2.11764717
360.90020752;2.17647052
360.90426636;2.50980401
360.90841675;2.54901958
360.91250610;2.52941179
360.91250610;2.60784316
360.91659546;2.72549009
360.92071533;2.66666675
360.92477417;2.76470590
360.92886353;2.49019599
360.93298340;2.58823538
360.93298340;2.66666675
360.93704224;2.50980401
360.94116211;2.27450991
360.94528198;2.00000000
360.94528198;1.92156863
360.94937134;1.88235295
360.95343018;2.03921580
360.95755005;2.09803915
360.95755005;2.17647052
360.96163940;2.50980401
360.96575928;2.74509811
360.96981812;2.82352948
360.97399902;3.00000000
360.97802734;2.86274505
360.97802734;2.86274505
360.98211670;3.00000000
360.98617554;3.27450991
360.99035645;3.01960778
360.99035645;3.25490189
360.99441528;3.15686274
360.99850464;2.94117641
361.00262451;2.84313726
361.00262451;2.72549009
361.00668335;2.49019599
361.01080322;2.07843137
361.01489258;2.15686274
361.01898193;2.01960778
361.02316284;1.88235295
361.02316284;1.92156863
361.02719116;2.03921580
361.03128052;2.31372547
361.03536987;2.64705873
361.03536987;2.78431368
361.03945923;2.82352948
361.04357910;2.76470590
361.04766846;2.84313726
361.04766846;2.66666675
361.05175781;2.70588231
361.05587769;2.86274505
361.05993652;2.88235283
361.06405640;2.96078420
361.06814575;2.94117641
361.06814575;2.68627453
361.07226563;2.70588231
361.07632446;2.70588231
361.08044434;2.64705873
361.08044434;2.80392146
361.08453369;2.94117641
361.08868408;2.68627453
361.09277344;2.92156863
361.09277344;3.11764717
361.09683228;2.60784316
361.10092163;2.76470590
361.10501099;2.15686274
361.10913086;2.00000000
361.11322021;1.96078432
361.11322021;1.70588231
361.11730957;1.47058821
361.12136841;1.58823526
361.12548828;1.76470590
361.12548828;1.90196073
361.12957764;2.15686274
361.13366699;2.33333325
361.13778687;2.49019599
361.13778687;2.41176462
361.14187622;2.50980401
361.14599609;2.62745094
361.15008545;2.66666675
361.15414429;2.76470590
361.15829468;2.68627453
361.15829468;2.70588231
361.16235352;2.50980401
361.16647339;2.74509811
361.17059326;2.80392146
361.17059326;2.84313726
361.17468262;2.98039222
361.17874146;3.07843137
361.18286133;2.60784316
361.18286133;2.43137264
361.18698120;2.17647052
361.19107056;1.66666663
361.19512939;1.62745094
361.19927979;1.54901958
361.20336914;1.64705884
361.20336914;1.82352936
361.20739746;1.84313726
361.21151733;2.03921580
361.21563721;1.96078432
361.21563721;2.00000000
361.21969604;2.23529410
361.22381592;2.25490189
361.22799683;2.39215684
361.22799683;2.43137264
361.23208618;2.72549009
361.23611450;2.82352948
361.24020386;2.72549009
361.24429321;2.64705873
361.24841309;2.72549009
361.24841309;2.68627453
361.25247192;2.86274505
361.25659180;2.98039222
361.26068115;2.96078420
361.26068115;2.96078420
361.26486206;3.01960778
361.26885986;2.56862736
361.27307129;2.29411769
361.27307129;2.23529410
361.27706909;1.74509799
361.28118896;1.70588231
361.28527832;1.90196073
361.28933716;2.11764717
361.29348755;2.29411769
361.29348755;2.66666675
361.29754639;2.60784316
361.30160522;2.70588231
361.30575562;2.76470590
361.30575562;2.64705873
361.30981445;2.50980401
361.31393433;2.56862736
361.31802368;2.60784316
361.31802368;2.47058821
361.32214355;2.64705873
361.32635498;2.74509811
361.33032227;2.96078420
361.33441162;2.94117641
361.33853149;3.11764717
361.33853149;2.92156863
361.34262085;2.66666675
361.34664917;3.00000000
361.35079956;2.76470590
361.35079956;2.56862736
361.35488892;2.60784316
361.35897827;2.52941179
361.36309814;2.39215684
361.36309814;2.31372547
361.36715698;2.09803915
361.37130737;2.11764717
361.37539673;2.35294127
361.37948608;2.31372547
361.38357544;2.49019599
361.38357544;2.70588231
361.38763428;2.56862736
361.39175415;2.64705873
361.39587402;2.70588231
361.39587402;2.58823538
361.39996338;2.45098042
361.40399170;2.50980401
361.40817261;2.49019599
361.40817261;2.29411769
361.41229248;2.56862736
361.41635132;2.72549009
361.42044067;2.52941179
361.42453003;2.76470590
361.42861938;2.82352948
361.42861938;2.66666675
361.43273926;2.78431368
361.43676758;2.82352948
361.44094849;2.74509811
361.44094849;2.50980401
361.44500732;2.23529410
361.44909668;1.86274505
361.45321655;1.96078432
361.45321655;2.05882359
361.45730591;1.90196073
361.46139526;2.00000000
361.46548462;2.35294127
361.46957397;2.29411769
361.47378540;2.39215684
361.47378540;2.41176462
361.47778320;2.29411769
361.48187256;2.37254906
361.48596191;2.47058821
361.48596191;2.31372547
361.49008179;2.47058821
361.49414063;2.50980401
361.49832153;2.64705873
361.49832153;2.54901958
361.50234985;2.76470590
361.50643921;2.88235283
361.51055908;2.80392146
361.51464844;2.80392146
361.51876831;2.56862736
361.51876831;2.52941179
361.52285767;2.64705873
361.52694702;2.60784316
361.53106689;2.23529410
361.53106689;2.37254906
361.53512573;2.35294127
361.53927612;2.11764717
361.54336548;2.03921580
361.54336548;1.94117641
361.54739380;2.11764717
361.55151367;2.47058821
361.55560303;2.98039222
361.55969238;2.86274505
361.56384277;3.00000000
361.56384277;3.17647052
361.56793213;2.60784316
361.57199097;2.41176462
361.57611084;2.43137264
361.57611084;2.15686274
361.58016968;2.01960778
361.58428955;2.01960778
361.58840942;2.13725495
361.58840942;2.35294127
361.59249878;2.86274505
361.59671021;3.09803915
361.60067749;2.74509811
361.60479736;2.76470590
361.60913086;2.07843137
361.60913086;1.98039210
361.61297607;1.90196073
361.61703491;1.86274505
361.62118530;1.88235295
361.62118530;2.09803915
361.62527466;2.17647052
361.62936401;2.15686274
361.63345337;2.13725495
361.63345337;2.43137264
361.63751221;2.35294127
361.64166260;2.37254906
361.64575195;2.50980401
361.64984131;2.37254906
361.65393066;2.52941179
361.65393066;2.43137264
361.65805054;2.09803915
361.66207886;2.29411769
361.66625977;2.17647052
361.66625977;2.35294127
361.67031860;2.47058821
361.67440796;3.00000000
361.67852783;3.41176462
361.67852783;3.21568632
361.68258667;3.15686274
361.68670654;3.31372547
361.69079590;2.72549009
361.69488525;2.45098042
361.69900513;2.27450991
361.69900513;2.21568632
361.70309448;2.17647052
361.70718384;2.15686274
361.71127319;2.00000000
361.71127319;2.13725495
361.71536255;2.29411769
361.71945190;1.90196073
361.72369385;2.13725495
361.72369385;2.35294127
361.72766113;2.05882359
361.73175049;1.86274505
361.73583984;2.01960778
361.73995972;2.00000000
361.74411011;2.01960778
361.74411011;2.25490189
361.74816895;2.35294127
361.75225830;2.70588231
361.75634766;2.92156863
361.75634766;2.60784316
361.76043701;2.58823538
361.76452637;2.70588231
361.76864624;2.43137264
361.76864624;2.39215684
361.77276611;2.45098042
361.77685547;2.60784316
361.78091431;2.70588231
361.78500366;2.80392146
361.78912354;2.74509811
361.78912354;2.86274505
361.79321289;3.01960778
361.79730225;3.09803915
361.80142212;3.33333325
361.80142212;3.33333325
361.80548096;3.21568632
361.80957031;3.01960778
361.81369019;3.00000000
361.81369019;2.80392146
361.81777954;2.45098042
361.82186890;2.37254906
361.82598877;2.25490189
361.83007813;2.15686274
361.83419800;2.03921580
361.83419800;1.98039210
361.83828735;1.80392158
361.84240723;1.78431368
361.84649658;1.66666663
361.84649658;1.84313726
361.85055542;2.11764717
361.85461426;2.21568632
361.85876465;2.49019599
361.85876465;2.64705873
361.86282349;3.09803915
361.86694336;2.96078420
361.87103271;2.88235283
361.87515259;2.88235283
361.87927246;2.64705873
361.87927246;2.58823538
361.88333130;2.47058821
361.88739014;2.23529410
361.89154053;2.05882359
361.89154053;2.15686274
361.89559937;2.33333325
361.89968872;2.15686274
361.90383911;2.09803915
361.90383911;2.43137264
361.90795898;2.21568632
361.91201782;2.07843137
361.91610718;2.01960778
361.92016602;2.03921580
361.92431641;2.23529410
361.92431641;2.25490189
361.92837524;2.17647052
361.93246460;2.33333325
361.93658447;2.31372547
361.93658447;2.07843137
361.94067383;2.05882359
361.94476318;2.19607854
361.94888306;2.27450991
361.94888306;2.05882359
361.95297241;2.37254906
361.95706177;2.43137264
361.96115112;2.43137264
361.96527100;2.35294127
361.96936035;2.21568632
361.96936035;2.23529410
361.97354126;2.21568632
361.97753906;2.05882359
361.98165894;2.01960778
361.98165894;2.19607854
361.98574829;2.54901958
361.98983765;2.70588231
361.99392700;3.15686274
361.99392700;3.15686274
361.99801636;2.94117641
362.00213623;2.98039222
362.00622559;2.54901958
362.01031494;2.31372547
362.01443481;2.56862736
362.01443481;2.86274505
362.01849365;2.49019599
362.02264404;2.68627453
362.02673340;2.88235283
362.02673340;2.50980401
362.03079224;2.49019599
362.03488159;2.60784316
362.03900146;2.45098042
362.03900146;2.60784316
362.04309082;2.84313726
362.04714966;2.86274505
362.05126953;2.62745094
362.05538940;2.72549009
362.05947876;2.21568632
362.05947876;2.00000000
362.06353760;2.07843137
362.06765747;1.94117641
362.07177734;2.03921580
362.07177734;2.47058821
362.07586670;2.58823538
362.07989502;2.62745094
362.08404541;2.82352948
362.08404541;2.98039222
362.08813477;2.84313726
362.09228516;2.98039222
362.09631348;3.07843137
362.10043335;2.98039222
362.10452271;2.98039222
362.10452271;3.33333325
362.10864258;2.86274505
362.11273193;2.92156863
362.11682129;2.88235283
362.11682129;2.56862736
362.12091064;2.39215684
362.12500000;2.33333325
362.12911987;1.84313726
362.12911987;1.98039210
362.13320923;2.13725495
362.13729858;2.01960778
362.14141846;1.94117641
362.14550781;2.00000000
362.14959717;1.84313726
362.14959717;2.15686274
362.15368652;2.54901958
362.15780640;2.74509811
362.16189575;2.37254906
362.16189575;2.66666675
362.16598511;2.82352948
362.17004395;2.39215684
362.17416382;2.31372547
362.17416382;2.35294127
362.17828369;2.45098042
362.18237305;2.54901958
362.18646240;2.88235283
362.19055176;2.84313726
362.19467163;2.98039222
362.19467163;3.09803915
362.19876099;2.94117641
362.20281982;2.96078420
362.20697021;3.17647052
362.20697021;2.90196085
362.21102905;3.19607854
362.21514893;3.31372547
362.21926880;2.76470590
362.21926880;2.66666675
362.22338867;2.60784316
362.22750854;2.19607854
362.23159790;2.01960778
362.23565674;1.84313726
362.23977661;1.84313726
362.23977661;2.03921580
362.24380493;2.23529410
362.24789429;2.27450991
362.25201416;2.17647052
362.25201416;2.21568632
362.25610352;2.09803915
362.26016235;2.13725495
362.26431274;2.03921580
362.26431274;2.15686274
362.26837158;2.19607854
362.27249146;2.58823538
362.27658081;2.76470590
362.28067017;2.80392146
362.28479004;2.62745094
362.28479004;2.50980401
362.28884888;2.39215684
362.29299927;2.39215684
362.29721069;2.50980401
362.29721069;2.35294127
362.30114746;2.45098042
362.30526733;2.35294127
362.30935669;2.19607854
362.30935669;2.09803915
362.31344604;2.23529410
362.31756592;2.29411769
362.32162476;2.35294127
362.32574463;2.68627453
362.32983398;2.70588231
362.32983398;2.62745094
362.33395386;2.92156863
362.33801270;2.98039222
362.34216309;2.58823538
362.34216309;2.37254906
362.34619141;2.37254906
362.35031128;2.25490189
362.35443115;2.39215684
362.35443115;2.60784316
362.35852051;2.09803915
362.36260986;2.37254906
362.36669922;2.05882359
362.37075806;1.72549021
362.37490845;1.84313726
362.37490845;1.98039210
362.37896729;2.13725495
362.38308716;2.41176462
362.38720703;2.84313726
362.38720703;2.94117641
362.39129639;3.27450991
362.39532471;3.47058821
362.39947510;3.33333325
362.39947510;3.25490189
362.40356445;3.17647052
362.40768433;3.09803915
362.41192627;2.94117641
362.41586304;2.88235283
362.41995239;2.64705873
362.41995239;2.74509811
362.42416382;2.86274505
362.42816162;2.70588231
362.43228149;2.78431368
362.43228149;3.11764717
362.43634033;2.60784316
362.44042969;2.49019599
362.44454956;2.47058821
362.44454956;2.11764717
362.44952393;1.84313726
362.45272827;1.94117641
362.45693970;2.21568632
362.46090698;2.11764717
362.46502686;2.21568632
362.46502686;2.23529410
362.46908569;2.05882359
362.47320557;2.17647052
362.47729492;2.41176462
362.47729492;2.25490189
362.48141479;2.33333325
362.48550415;2.58823538
362.48959351;2.47058821
362.48959351;2.47058821
362.49368286;2.58823538
362.49777222;2.52941179
362.50186157;2.86274505
362.50601196;3.09803915
362.51007080;2.90196085
362.51007080;2.76470590
362.51416016;2.76470590
362.51828003;2.33333325
362.52236938;1.92156863
362.52236938;1.80392158
362.52645874;1.58823526
362.53054810;1.74509799
362.53463745;2.05882359
362.53463745;2.19607854
362.53875732;2.17647052
362.54284668;2.07843137
362.54693604;2.07843137
362.55102539;2.03921580
362.55511475;2.00000000
362.55511475;2.00000000
362.55929565;2.00000000
362.56350708;2.01960778
362.56741333;2.21568632
362.56741333;2.25490189
362.57150269;2.21568632
362.57559204;2.49019599
362.57974243;2.52941179
362.57974243;2.68627453
362.58380127;2.76470590
362.58789063;2.86274505
362.59201050;2.76470590
362.59609985;3.07843137
362.60021973;2.74509811
362.60021973;2.74509811
362.60427856;2.96078420
362.60839844;2.72549009
362.61248779;2.58823538
362.61248779;2.60784316
362.61657715;2.41176462
362.62063599;2.41176462
362.62478638;2.43137264
362.62478638;2.88235283
362.62884521;2.70588231
362.63296509;2.88235283
362.63705444;2.64705873
362.64117432;2.45098042
362.64526367;2.19607854
362.64526367;2.09803915
362.64932251;1.82352936
362.65341187;2.17647052
362.65756226;2.60784316
362.65756226;2.35294127
362.66162109;2.56862736
362.66571045;2.52941179
362.66983032;2.31372547
362.66983032;2.19607854
362.67416382;2.17647052
362.67803955;1.92156863
362.68212891;2.05882359
362.68618774;2.17647052
362.69033813;2.13725495
362.69033813;2.39215684
362.69439697;2.56862736
362.69848633;2.50980401
362.70263672;2.60784316
362.70263672;2.90196085
362.70675659;3.19607854
362.71078491;2.68627453
362.71490479;3.13725495
362.71490479;3.21568632
362.71896362;2.86274505
362.72308350;2.84313726
362.72717285;2.29411769
362.73126221;2.43137264
362.73538208;2.45098042
362.73538208;1.96078432
362.73944092;1.80392158
362.74359131;2.05882359
362.74771118;2.13725495
362.74771118;2.05882359
362.75180054;2.43137264
362.75585938;2.76470590
362.75994873;2.68627453
362.75994873;2.86274505
362.76406860;3.00000000
362.76815796;2.66666675
362.77227783;2.58823538
362.77633667;2.11764717
362.78042603;2.23529410
362.78042603;2.21568632
362.78536987;2.19607854
362.78866577;2.11764717
362.79275513;2.23529410
362.79275513;2.50980401
362.79684448;2.41176462
362.80090332;2.49019599
362.80502319;2.72549009
362.80502319;2.76470590
362.80911255;2.60784316
362.81320190;2.62745094
362.81729126;2.88235283
362.82141113;2.58823538
362.82556152;2.68627453
362.82556152;2.50980401
362.82958984;2.37254906
362.83374023;2.41176462
362.83776855;2.35294127
362.83776855;2.11764717
362.84188843;2.07843137
362.84591675;2.33333325
362.85006714;2.25490189
362.85006714;2.39215684
362.85589600;2.60784316
362.85830688;2.60784316
362.86236572;2.88235283
362.86645508;2.90196085
362.87054443;2.64705873
362.87054443;2.82352948
362.87466431;2.86274505
362.87869263;2.58823538
362.88284302;2.45098042
362.88284302;2.52941179
362.88693237;2.47058821
362.89102173;2.03921580
362.89514160;2.19607854
362.89514160;2.05882359
362.89929199;1.78431368
362.90332031;1.66666663
362.90747070;1.76470590
362.91149902;1.80392158
362.91561890;1.98039210
362.91561890;1.96078432
362.91970825;2.09803915
362.92388916;2.13725495
362.92788696;2.33333325
362.92788696;2.39215684
362.93200684;2.52941179
362.93609619;2.62745094
362.94021606;2.54901958
362.94021606;2.72549009
362.94427490;2.50980401
362.94836426;2.35294127
362.95248413;2.62745094
362.95666504;2.31372547
362.96069336;2.15686274
362.96069336;2.31372547
362.96475220;2.33333325
362.96884155;2.00000000
362.97296143;2.29411769
362.97296143;2.21568632
362.97705078;2.11764717
362.98114014;2.21568632
362.98529053;2.11764717
362.98529053;2.07843137
362.98931885;1.90196073
362.99343872;2.00000000
362.99755859;2.05882359
363.00161743;2.05882359
363.00579834;2.07843137
363.00579834;2.09803915
363.00982666;2.01960778
363.01391602;2.37254906
363.01803589;2.45098042
363.01803589;2.31372547
363.02209473;2.39215684
363.02624512;2.76470590
363.03033447;2.60784316
363.03033447;2.35294127
363.03439331;2.45098042
363.03851318;2.39215684
363.04263306;2.29411769
363.04666138;2.45098042
363.05081177;2.58823538
363.05081177;2.88235283
363.05487061;3.17647052
363.05899048;3.25490189
363.06311035;3.33333325
363.06311035;3.45098042
363.06716919;3.29411769
363.07128906;3.45098042
363.07537842;3.60784316
363.07537842;3.23529410
363.07943726;3.13725495
363.08358765;2.98039222
363.08764648;2.43137264
363.09176636;2.45098042
363.09585571;2.19607854
363.09585571;2.31372547
363.09994507;2.37254906
363.10406494;2.35294127
363.10818481;2.19607854
363.10818481;2.01960778
363.11227417;2.11764717
363.11633301;2.17647052
363.12042236;2.13725495
363.12042236;2.35294127
363.12451172;2.47058821
363.12863159;2.50980401
363.13272095;2.82352948
363.13681030;2.80392146
363.14096069;2.80392146
363.14096069;2.72549009
363.14498901;2.88235283
363.14910889;2.72549009
363.15319824;3.07843137
363.15319824;3.39215684
363.15731812;3.11764717
363.16134644;3.19607854
363.16549683;3.27450991
363.16549683;2.78431368
363.16958618;1.92156863
363.17379761;1.80392158
363.17776489;1.50980389
363.18188477;1.56862748
363.18597412;2.19607854
363.18597412;2.41176462
363.19006348;2.66666675
363.19415283;3.09803915
363.19827271;3.15686274
363.19827271;3.07843137
363.20236206;3.05882359
363.20654297;3.03921580
363.21057129;2.64705873
363.21057129;2.64705873
363.21463013;2.66666675
363.21875000;2.37254906
363.22283936;2.49019599
363.22705078;2.54901958
363.23123169;2.52941179
363.23123169;2.72549009
363.23519897;2.60784316
363.23919678;2.47058821
363.24334717;2.43137264
363.24334717;2.56862736
363.24740601;2.33333325
363.25149536;1.98039210
363.25567627;2.25490189
363.25567627;2.11764717
363.25970459;1.70588231
363.26382446;1.56862748
363.26791382;1.58823526
363.27200317;1.88235295
363.27612305;2.21568632
363.27612305;2.35294127
363.28015137;2.19607854
363.28427124;2.07843137
363.28839111;2.35294127
363.28839111;2.11764717
363.29251099;1.82352936
363.29653931;2.05882359
363.30068970;2.21568632
363.30068970;2.27450991
363.30474854;2.37254906
363.30886841;2.41176462
363.31295776;2.68627453
363.31704712;2.68627453
363.32116699;2.68627453
363.32116699;2.80392146
363.32528687;3.01960778
363.32931519;3.03921580
363.33346558;3.33333325
363.33346558;3.33333325
363.33752441;3.33333325
363.34164429;3.58823538
363.34573364;3.37254906
363.34573364;3.09803915
363.34982300;3.01960778
363.35391235;2.94117641
363.35803223;2.21568632
363.36212158;2.09803915
363.36627197;2.13725495
363.36627197;1.90196073
363.37030029;1.76470590
363.37438965;1.92156863
363.37850952;2.00000000
363.37850952;1.98039210
363.38259888;2.19607854
363.38668823;2.41176462
363.39080811;2.21568632
363.39080811;2.31372547
363.39486694;2.49019599
363.39901733;2.43137264
363.40307617;2.54901958
363.40731812;2.60784316
363.41128540;2.58823538
363.41128540;2.70588231
363.41537476;2.76470590
363.41943359;2.76470590
363.42370605;2.70588231
363.42370605;2.80392146
363.42764282;2.62745094
363.43176270;2.50980401
363.43585205;2.52941179
363.43585205;2.39215684
363.43994141;2.56862736
363.44409180;2.49019599
363.44815063;2.54901958
363.45227051;2.60784316
363.45645142;2.62745094
363.45645142;2.23529410
363.46041870;2.27450991
363.46453857;2.25490189
363.46862793;2.21568632
363.46862793;2.23529410
363.47271729;2.35294127
363.47683716;2.52941179
363.48092651;2.56862736
363.48092651;2.80392146
363.48498535;2.56862736
363.48910522;2.37254906
363.49319458;2.52941179
363.49731445;2.00000000
363.50140381;2.01960778
363.50140381;1.98039210
363.50552368;2.00000000
363.50958252;1.92156863
363.51370239;2.21568632
363.51370239;2.45098042
363.51776123;2.52941179
363.52182007;2.74509811
363.52603149;3.05882359
363.52603149;3.05882359
363.53005981;3.03921580
363.53417969;2.96078420
363.53826904;2.58823538
363.54235840;2.45098042
363.54644775;2.33333325
363.54644775;2.17647052
363.55056763;2.29411769
363.55459595;2.41176462
363.55874634;2.41176462
363.55874634;2.37254906
363.56283569;2.33333325
363.56692505;2.43137264
363.57104492;2.29411769
363.57104492;2.64705873
363.57513428;2.52941179
363.57928467;2.72549009
363.58331299;2.78431368
363.58737183;2.74509811
363.59155273;2.70588231
363.59155273;2.72549009
363.59561157;2.50980401
363.59970093;2.49019599
363.60379028;2.37254906
363.60379028;2.54901958
363.60791016;2.56862736
363.61196899;2.58823538
363.61608887;2.62745094
363.61608887;2.15686274
363.62017822;2.03921580
363.62429810;1.82352936
363.62838745;1.15686274
363.63247681;1.23529410
363.63656616;1.45098042
363.63656616;1.50980389
363.64068604;1.90196073
363.64474487;2.05882359
363.64886475;2.23529410
363.64886475;2.39215684
363.65295410;2.52941179
363.65710449;2.45098042
363.66116333;2.41176462
363.66116333;2.47058821
363.66528320;2.60784316
363.66934204;2.58823538
363.67361450;2.80392146
363.67752075;2.70588231
363.68164063;2.78431368
363.68164063;2.80392146
363.68572998;2.68627453
363.68981934;2.50980401
363.69393921;2.74509811
363.69393921;3.21568632
363.69802856;3.07843137
363.70208740;3.15686274
363.70635986;3.05882359
363.70635986;2.76470590
363.71029663;2.56862736
363.71438599;2.19607854
363.71850586;1.68627453
363.72262573;1.80392158
363.72671509;2.09803915
363.72671509;2.09803915
363.73077393;2.37254906
363.73486328;2.54901958
363.73901367;2.49019599
363.73901367;2.70588231
363.74310303;2.72549009
363.74716187;2.74509811
363.75131226;2.74509811
363.75131226;2.98039222
363.75540161;2.92156863
363.75949097;2.90196085
363.76354980;3.00000000
363.76763916;2.90196085
363.77175903;2.98039222
363.77175903;2.94117641
363.77587891;2.80392146
363.77990723;2.82352948
363.78405762;3.00000000
363.78405762;2.62745094
363.78811646;2.33333325
363.79229736;2.49019599
363.79635620;2.39215684
363.79635620;1.92156863
363.80041504;1.84313726
363.80453491;1.90196073
363.80862427;2.21568632
363.81271362;2.47058821
363.81683350;2.78431368
363.81683350;2.70588231
363.82092285;2.96078420
363.82501221;2.90196085
363.82910156;2.62745094
363.82910156;2.60784316
363.83319092;2.66666675
363.83731079;2.66666675
363.84143066;2.70588231
363.84143066;2.54901958
363.84548950;2.98039222
363.84960938;2.64705873
363.85366821;2.96078420
363.85784912;2.68627453
363.86190796;2.56862736
363.86190796;2.82352948
363.86596680;2.54901958
363.87002563;2.37254906
363.87417603;2.31372547
363.87417603;2.15686274
363.87826538;1.84313726
363.88235474;1.96078432
363.88647461;2.31372547
363.88647461;1.84313726
363.89056396;2.07843137
363.89465332;2.35294127
363.89877319;2.09803915
363.90283203;1.92156863
363.90698242;2.09803915
363.90698242;2.11764717
363.91104126;2.11764717
363.91513062;2.21568632
363.91928101;2.07843137
363.91928101;2.11764717
363.92346191;2.09803915
363.92739868;2.03921580
363.93151855;2.05882359
363.93151855;2.29411769
363.93560791;2.60784316
363.93969727;2.60784316
363.94381714;2.80392146
363.94790649;2.84313726
363.95199585;2.98039222
363.95199585;3.09803915
363.95611572;3.17647052
363.96017456;2.92156863
363.96429443;3.03921580
363.96429443;2.94117641
363.96838379;2.68627453
363.97250366;2.19607854
363.97659302;2.03921580
363.97659302;1.86274505
363.98068237;1.68627453
363.98480225;1.80392158
363.98886108;1.94117641
363.99295044;2.17647052
363.99703979;2.45098042
363.99703979;2.43137264
364.00115967;2.60784316
364.00534058;2.72549009
364.00936890;2.72549009
364.00936890;2.76470590
364.01342773;2.82352948
364.01751709;2.78431368
364.02166748;2.68627453
364.02166748;2.66666675
364.02575684;2.76470590
364.02984619;2.54901958
364.03393555;2.68627453
364.03799438;2.60784316
364.04214478;2.96078420
364.04214478;3.03921580
364.04620361;2.96078420
364.05029297;3.09803915
364.05444336;2.88235283
364.05444336;2.92156863
364.05850220;2.56862736
364.06256104;2.35294127
364.06671143;2.25490189
364.06671143;2.15686274
364.07077026;2.31372547
364.07489014;2.37254906
364.07897949;2.05882359
364.08306885;2.03921580
364.08718872;1.98039210
364.08718872;1.86274505
364.09130859;2.00000000
364.09533691;2.17647052
364.09948730;2.15686274
364.09948730;2.31372547
364.10354614;2.39215684
364.10766602;2.50980401
364.11175537;2.47058821
364.11175537;2.56862736
364.11584473;2.54901958
364.11993408;2.43137264
364.12411499;2.68627453
364.12814331;2.21568632
364.13229370;2.47058821
364.13229370;2.64705873
364.13632202;2.56862736
364.14044189;2.49019599
364.14453125;2.58823538
364.14453125;2.92156863
364.14862061;2.60784316
364.15267944;2.72549009
364.15686035;2.90196085
364.15686035;2.62745094
364.16091919;2.39215684
364.16497803;2.47058821
364.16909790;2.13725495
364.17333984;2.11764717
364.17730713;2.00000000
364.17730713;1.76470590
364.18136597;1.82352936
364.18545532;1.98039210
364.18960571;1.88235295
364.18960571;2.05882359
364.19366455;2.33333325
364.19778442;2.33333325
364.20205688;2.29411769
364.20205688;2.31372547
364.20596313;2.49019599
364.21008301;2.31372547
364.21414185;2.56862736
364.21826172;2.50980401
364.22238159;2.58823538
364.22238159;2.80392146
364.22653198;2.74509811
364.23056030;2.92156863
364.23471069;3.31372547
364.23471069;3.11764717
364.23876953;2.68627453
364.24285889;2.84313726
364.24694824;2.54901958
364.24694824;1.90196073
364.25100708;1.70588231
364.25512695;1.66666663
364.25927734;2.19607854
364.26330566;2.29411769
364.26742554;2.54901958
364.26742554;2.60784316
364.27151489;2.94117641
364.27563477;2.66666675
364.27972412;2.31372547
364.27972412;2.41176462
364.28378296;2.33333325
364.28790283;2.13725495
364.29202271;2.00000000
364.29202271;2.15686274
364.29608154;2.25490189
364.30020142;2.29411769
364.30426025;2.82352948
364.30838013;2.56862736
364.31246948;2.78431368
364.31246948;3.23529410
364.31655884;3.15686274
364.32067871;2.70588231
364.32476807;2.78431368
364.32476807;3.01960778
364.32885742;2.90196085
364.33294678;2.68627453
364.33706665;2.64705873
364.33706665;2.50980401
364.34118652;2.62745094
364.34527588;2.31372547
364.34933472;2.03921580
364.35342407;2.17647052
364.35757446;2.07843137
364.35757446;2.05882359
364.36163330;2.19607854
364.36572266;2.35294127
364.36984253;2.35294127
364.36984253;2.60784316
364.37393188;2.74509811
364.37799072;2.68627453
364.38214111;2.92156863
364.38214111;3.13725495
364.38619995;2.88235283
364.39031982;2.88235283
364.39443970;2.98039222
364.39846802;2.74509811
364.40258789;2.74509811
364.40258789;2.52941179
364.40670776;2.43137264
364.41076660;2.70588231
364.41491699;2.52941179
364.41491699;2.49019599
364.41897583;2.49019599
364.42321777;2.37254906
364.42718506;2.58823538
364.42718506;2.35294127
364.43130493;2.21568632
364.43536377;2.25490189
364.43948364;1.98039210
364.44354248;2.03921580
364.44763184;2.07843137
364.44763184;2.09803915
364.45175171;2.39215684
364.45584106;2.60784316
364.45996094;2.33333325
364.45996094;2.64705873
364.46401978;2.72549009
364.46813965;2.52941179
364.47229004;2.56862736
364.47229004;2.56862736
364.47634888;2.37254906
364.48040771;2.23529410
364.48452759;2.25490189
364.48867798;2.23529410
364.49276733;2.23529410
364.49276733;2.45098042
364.49682617;2.41176462
364.50103760;2.33333325
364.50500488;2.25490189
364.50500488;2.23529410
364.50909424;2.07843137
364.51321411;2.13725495
364.51730347;2.23529410
364.51730347;2.11764717
364.52139282;2.37254906
364.52554321;2.54901958
364.52957153;2.43137264
364.53366089;2.76470590
364.53778076;2.50980401
364.53778076;2.35294127
364.54193115;2.23529410
364.54602051;2.17647052
364.55007935;2.00000000
364.55007935;2.11764717
364.55413818;2.41176462
364.55828857;2.62745094
364.56237793;2.58823538
364.56237793;2.54901958
364.56643677;2.76470590
364.57055664;2.56862736
364.57464600;2.41176462
364.57873535;2.33333325
364.58285522;2.54901958
364.58285522;2.74509811
364.58691406;2.70588231
364.59106445;2.78431368
364.59512329;3.00000000
364.59512329;2.98039222
364.59927368;2.90196085
364.60330200;3.17647052
364.60745239;3.17647052
364.60745239;3.15686274
364.61151123;3.03921580
364.61557007;3.13725495
364.61968994;2.76470590
364.62384033;2.74509811
364.62789917;2.50980401
364.62789917;2.39215684
364.63195801;2.70588231
364.63607788;2.37254906
364.64031982;1.98039210
364.64031982;1.94117641
364.64431763;1.94117641
364.64837646;1.80392158
364.65246582;1.72549021
364.65246582;2.15686274
364.65667725;2.21568632
364.66067505;2.37254906
364.66479492;2.60784316
364.66885376;2.47058821
364.67297363;2.66666675
364.67297363;2.76470590
364.67703247;2.60784316
364.68115234;2.62745094
364.68527222;2.76470590
364.68527222;2.76470590
364.68930054;2.78431368
364.69342041;3.19607854
364.69754028;3.09803915
364.69754028;3.00000000
364.70166016;3.23529410
364.70574951;3.25490189
364.70983887;2.74509811
364.71392822;2.82352948
364.71801758;2.66666675
364.71801758;2.50980401
364.72210693;2.47058821
364.72622681;2.39215684
364.73031616;2.15686274
364.73031616;2.31372547
364.73443604;2.23529410
364.73852539;1.96078432
364.74267578;2.01960778
364.74267578;2.31372547
364.74667358;2.21568632
364.75079346;2.07843137
364.75488281;2.25490189
364.75897217;2.09803915
364.76309204;2.27450991
364.76309204;2.62745094
364.76715088;2.17647052
364.77130127;2.37254906
364.77542114;2.62745094
364.77542114;2.33333325
364.77944946;2.03921580
364.78353882;2.05882359
364.78765869;2.11764717
364.78765869;2.09803915
364.79177856;2.27450991
364.79583740;2.64705873
364.79995728;2.68627453
364.80401611;2.76470590
364.80813599;2.88235283
364.80813599;2.58823538
364.81228638;2.52941179
364.81631470;2.47058821
364.82043457;2.03921580
364.82043457;2.17647052
364.82452393;2.21568632
364.82858276;2.15686274
364.83273315;2.11764717
364.83273315;2.27450991
364.83679199;2.25490189
364.84091187;2.15686274
364.84500122;2.19607854
364.84909058;2.03921580
364.85321045;2.23529410
364.85321045;2.45098042
364.85729980;2.39215684
364.86138916;2.56862736
364.86550903;2.66666675
364.86550903;2.72549009
364.86956787;2.80392146
364.87365723;2.94117641
364.87777710;2.68627453
364.87777710;2.64705873
364.88186646;2.49019599
364.88598633;2.43137264
364.89010620;2.19607854
364.89416504;2.43137264
364.89831543;2.72549009
364.89831543;2.92156863
364.90234375;2.72549009
364.90655518;2.88235283
364.91055298;2.78431368
364.91055298;2.41176462
364.91461182;1.96078432
364.91873169;1.64705884
364.92288208;1.60784316
364.92288208;1.47058821
364.92694092;1.66666663
364.93103027;1.80392158
364.93511963;2.09803915
364.93927002;2.17647052
364.94332886;2.33333325
364.94332886;2.56862736
364.94738770;2.50980401
364.95150757;2.68627453
364.95559692;2.82352948
364.95559692;2.80392146
364.95971680;2.88235283
364.96380615;2.96078420
364.96789551;3.03921580
364.96789551;2.90196085
364.97195435;3.21568632
364.97607422;3.31372547
364.98019409;2.96078420
364.98428345;3.07843137
364.98840332;2.66666675
364.98840332;2.43137264
364.99249268;2.43137264
364.99652100;2.37254906
365.00067139;2.29411769
365.00067139;2.27450991
365.00476074;2.45098042
365.00885010;2.29411769
365.01293945;2.47058821
365.01293945;2.60784316
365.01705933;2.31372547
365.02114868;2.52941179
365.02529907;2.50980401
365.02932739;2.56862736
365.03344727;2.47058821
365.03344727;2.54901958
365.03750610;2.50980401
365.04165649;2.49019599
365.04583740;2.49019599
365.04583740;2.49019599
365.04983521;2.56862736
365.05392456;2.72549009
365.05804443;2.76470590
365.05804443;2.64705873
365.06237793;2.70588231
365.06628418;2.72549009
365.07031250;2.94117641
365.07440186;3.23529410
365.07852173;2.82352948
365.07852173;3.01960778
365.08279419;3.00000000
365.08666992;2.78431368
365.09082031;2.33333325
365.09082031;2.01960778
365.09487915;1.84313726
365.09896851;1.68627453
365.10308838;1.72549021
365.10308838;1.86274505
365.10717773;1.98039210
365.11126709;2.00000000
365.11538696;2.23529410
365.11944580;2.09803915
365.12359619;1.92156863
365.12359619;1.96078432
365.12765503;1.94117641
365.13171387;2.11764717
365.13583374;2.39215684
365.13583374;2.41176462
365.14001465;2.47058821
365.14401245;2.70588231
365.14816284;2.78431368
365.14816284;2.52941179
365.15228271;2.74509811
365.15646362;2.58823538
365.16040039;2.39215684
365.16452026;2.41176462
365.16860962;2.47058821
365.16860962;2.52941179
365.17269897;2.17647052
365.17678833;2.35294127
365.18090820;2.09803915
365.18090820;1.70588231
365.18499756;1.41176474
365.18911743;1.21568632
365.19320679;1.50980389
365.19320679;1.88235295
365.19726563;1.92156863
365.20144653;2.15686274
365.20550537;2.56862736
365.20956421;2.49019599
365.21368408;2.70588231
365.21368408;2.76470590
365.21777344;2.68627453
365.22183228;2.72549009
365.22607422;2.74509811
365.22607422;2.66666675
365.23013306;2.72549009
365.23416138;2.88235283
365.23831177;2.78431368
365.23831177;2.80392146
365.24237061;2.92156863
365.24645996;3.15686274
365.25057983;3.33333325
365.25463867;3.54901958
365.25875854;3.43137264
365.25875854;3.15686274
365.26281738;3.03921580
365.26693726;2.52941179
365.27102661;1.96078432
365.27102661;1.86274505
365.27517700;1.70588231
365.27926636;1.52941179
365.28332520;1.62745094
365.28332520;1.86274505
365.28741455;1.92156863
365.29150391;2.17647052
365.29559326;2.66666675
365.29968262;2.68627453
365.30380249;2.74509811
365.30380249;2.86274505
365.30789185;2.64705873
365.31198120;2.82352948
365.31610107;2.98039222
365.31610107;2.92156863
365.32019043;2.98039222
365.32427979;3.11764717
365.32836914;3.01960778
365.32836914;2.96078420
365.33248901;2.98039222
365.33657837;2.90196085
365.34069824;2.72549009
365.34475708;2.92156863
365.34887695;2.98039222
365.34887695;2.92156863
365.35293579;3.09803915
365.35705566;3.27450991
365.36114502;2.56862736
365.36114502;2.19607854
365.36526489;2.00000000
365.36932373;1.43137252
365.37344360;1.33333337
365.37344360;1.37254906
365.37753296;1.31372547
365.38162231;1.72549021
365.38574219;2.07843137
365.38983154;2.11764717
365.39392090;2.31372547
365.39392090;2.56862736
365.39801025;2.50980401
365.40209961;2.62745094
365.40640259;2.90196085
365.40640259;2.68627453
365.41030884;2.64705873
365.41439819;2.84313726
365.41848755;2.52941179
365.41848755;2.19607854
365.42257690;2.11764717
365.42666626;2.41176462
365.43078613;2.41176462
365.43487549;2.96078420
365.43896484;2.92156863
365.43896484;2.70588231
365.44308472;2.82352948
365.44711304;2.72549009
365.45248413;2.49019599
365.45248413;2.60784316
365.45538330;2.25490189
365.45944214;2.03921580
365.46362305;1.96078432
365.46362305;2.03921580
365.46765137;1.88235295
365.47177124;2.11764717
365.47586060;2.35294127
365.47991943;2.58823538
365.48403931;2.60784316
365.48403931;2.62745094
365.48815918;2.47058821
365.49227905;2.62745094
365.49633789;2.66666675
365.49633789;2.58823538
365.50042725;2.70588231
365.50448608;2.74509811
365.50863647;2.62745094
365.50863647;2.49019599
365.51269531;2.76470590
365.51681519;2.84313726
365.52090454;2.70588231
365.52499390;2.64705873
365.52908325;2.66666675
365.52908325;2.76470590
365.53320313;2.45098042
365.53729248;2.15686274
365.54141235;2.19607854
365.54141235;2.01960778
365.54562378;1.86274505
365.54956055;1.74509799
365.55368042;2.05882359
365.55368042;2.13725495
365.55776978;2.17647052
365.56185913;2.45098042
365.56597900;2.25490189
365.57003784;2.23529410
365.57418823;2.29411769
365.57418823;2.35294127
365.57827759;2.29411769
365.58236694;2.41176462
365.58645630;2.58823538
365.58645630;2.56862736
365.59057617;2.74509811
365.59460449;2.98039222
365.59875488;3.09803915
365.59875488;3.05882359
365.60281372;2.96078420
365.60693359;3.03921580
365.61102295;2.82352948
365.61508179;2.78431368
365.61926270;2.62745094
365.61926270;2.43137264
365.62329102;2.50980401
365.62741089;2.25490189
365.63153076;2.03921580
365.63153076;2.27450991
365.63558960;2.23529410
365.63967896;2.15686274
365.64379883;2.27450991
365.64379883;2.33333325
365.64785767;1.94117641
365.65197754;2.07843137
365.65625000;2.01960778
365.66018677;2.15686274
365.66427612;2.50980401
365.66427612;2.47058821
365.66836548;2.35294127
365.67245483;2.47058821
365.67657471;2.54901958
365.67657471;2.17647052
365.68063354;2.00000000
365.68475342;2.15686274
365.68893433;2.11764717
365.68893433;2.21568632
365.69296265;2.50980401
365.69705200;2.66666675
365.70114136;2.84313726
365.70529175;3.00000000
365.70935059;2.90196085
365.70935059;2.80392146
365.71340942;3.09803915
365.71752930;2.90196085
365.72161865;2.84313726
365.72161865;2.47058821
365.72573853;2.56862736
365.72982788;2.47058821
365.73391724;2.21568632
365.73391724;2.25490189
365.73800659;1.96078432
365.74212646;2.17647052
365.74618530;2.05882359
365.75030518;2.27450991
365.75439453;2.66666675
365.75439453;2.80392146
365.75851440;2.66666675
365.76257324;2.82352948
365.76675415;2.84313726
365.76675415;2.62745094
365.77078247;2.52941179
365.77490234;2.25490189
365.77896118;2.31372547
365.77896118;2.35294127
365.78308105;2.29411769
365.78839111;2.25490189
365.79129028;2.35294127
365.79534912;2.49019599
365.79946899;2.47058821
365.79946899;2.70588231
365.80355835;2.76470590
365.80764771;2.47058821
365.81176758;2.58823538
365.81176758;2.66666675
365.81585693;2.23529410
365.81991577;2.05882359
365.82403564;2.29411769
365.82403564;2.09803915
365.82812500;2.09803915
365.83227539;2.37254906
365.83633423;2.52941179
365.84045410;2.66666675
365.84466553;2.84313726
365.84466553;2.74509811
365.84860229;2.56862736
365.85269165;2.62745094
365.85919189;2.58823538
365.85919189;2.11764717
365.86093140;2.13725495
365.86499023;2.21568632
365.86911011;2.13725495
365.86911011;2.41176462
365.87319946;2.64705873
365.87728882;2.86274505
365.88137817;2.86274505
365.88555908;2.92156863
365.88958740;2.64705873
365.88958740;2.47058821
365.89367676;2.39215684
365.89773560;2.19607854
365.90188599;2.25490189
365.90188599;2.64705873
365.90600586;2.86274505
365.91006470;2.74509811
365.91418457;2.70588231
365.91418457;2.98039222
365.91827393;2.64705873
365.92236328;2.33333325
365.92645264;2.17647052
365.93054199;2.50980401
365.93466187;2.64705873
365.93466187;2.45098042
365.93872070;2.56862736
365.94281006;2.52941179
365.94692993;2.37254906
365.94692993;2.01960778
365.95101929;2.13725495
365.95513916;2.39215684
365.95928955;2.25490189
365.95928955;2.35294127
365.96328735;2.54901958
365.96740723;2.56862736
365.97149658;2.39215684
365.97561646;2.41176462
365.97970581;2.31372547
365.97970581;2.35294127
365.98379517;2.41176462
365.98785400;2.45098042
365.99200439;2.70588231
365.99200439;2.31372547
365.99606323;2.47058821
366.00018311;2.25490189
366.00427246;2.05882359
366.00427246;1.90196073
366.00839233;1.74509799
366.01248169;1.82352936
366.01657104;1.84313726
366.02066040;1.94117641
366.02481079;2.00000000
366.02481079;2.05882359
366.02883911;2.05882359
366.03295898;2.29411769
366.03704834;2.64705873
366.03704834;2.43137264
366.04116821;2.49019599
366.04528809;2.80392146
366.04934692;2.54901958
366.04934692;2.41176462
366.05343628;2.47058821
366.05752563;2.33333325
366.06161499;2.21568632
366.06573486;2.33333325
366.06982422;2.23529410
366.06982422;2.39215684
366.07391357;2.62745094
366.07800293;2.56862736
366.08212280;2.58823538
366.08212280;2.78431368
366.08618164;2.80392146
366.09033203;2.60784316
366.09439087;2.90196085
366.09439087;3.09803915
366.09848022;2.96078420
366.10260010;3.15686274
366.10668945;3.33333325
366.11077881;3.25490189
366.11486816;3.23529410
366.11486816;3.11764717
366.11895752;2.68627453
366.12307739;2.52941179
366.12716675;2.39215684
366.12716675;1.98039210
366.13128662;2.17647052
366.13534546;2.33333325
366.13949585;2.35294127
366.13949585;2.37254906
366.14355469;2.35294127
366.14764404;2.50980401
366.15176392;2.52941179
366.15600586;2.41176462
366.15994263;2.33333325
366.15994263;2.49019599
366.16403198;2.62745094
366.16812134;2.52941179
366.17227173;2.74509811
366.17227173;2.94117641
366.17633057;2.90196085
366.18041992;2.88235283
366.18457031;2.74509811
366.18457031;2.80392146
366.18862915;2.35294127
366.19271851;2.17647052
366.19692993;1.92156863
366.20089722;1.94117641
366.20501709;2.09803915
366.20501709;2.17647052
366.20910645;2.27450991
366.21316528;2.66666675
366.21728516;2.52941179
366.21728516;2.35294127
366.22140503;2.49019599
366.22552490;2.41176462
366.22970581;2.01960778
366.22970581;2.00000000
366.23367310;2.09803915
366.23779297;2.19607854
366.24188232;2.43137264
366.24594116;2.64705873
366.25006104;2.72549009
366.25006104;3.00000000
366.25415039;3.19607854
366.25827026;2.62745094
366.26235962;2.72549009
366.26235962;2.66666675
366.26644897;2.41176462
366.27050781;2.03921580
366.27468872;2.15686274
366.27468872;2.45098042
366.27871704;2.25490189
366.28283691;2.39215684
366.28692627;2.37254906
366.29104614;2.43137264
366.29513550;2.60784316
366.29513550;2.70588231
366.29919434;3.05882359
366.30328369;3.23529410
366.30743408;3.09803915
366.30743408;2.92156863
366.31149292;2.86274505
366.31561279;2.58823538
366.31970215;2.13725495
366.31970215;2.05882359
366.32379150;2.19607854
366.32791138;2.21568632
366.33200073;2.45098042
366.33609009;2.47058821
366.34020996;2.11764717
366.34020996;2.27450991
366.34426880;2.52941179
366.34832764;2.56862736
366.35247803;2.72549009
366.35247803;2.82352948
366.35662842;2.66666675
366.36074829;2.84313726
366.36477661;2.78431368
366.36477661;2.62745094
366.36883545;2.58823538
366.37295532;2.90196085
366.37707520;2.50980401
366.38116455;2.68627453
366.38528442;2.43137264
366.38528442;2.07843137
366.38934326;1.88235295
366.39343262;2.01960778
366.39752197;2.11764717
366.39752197;1.96078432
366.40161133;2.33333325
366.40588379;2.52941179
366.40982056;2.49019599
366.40982056;2.56862736
366.41390991;2.80392146
366.41799927;2.82352948
366.42211914;2.98039222
366.42620850;3.23529410
366.43029785;2.94117641
366.43029785;2.90196085
366.43438721;2.96078420
366.43850708;2.62745094
366.44259644;2.56862736
366.44259644;2.58823538
366.44668579;2.31372547
366.45077515;2.19607854
366.45489502;2.52941179
366.45489502;2.35294127
366.45898438;2.11764717
366.46307373;1.94117641
366.46716309;2.00000000
366.47131348;2.03921580
366.47537231;2.21568632
366.47537231;2.29411769
366.47946167;2.31372547
366.48355103;2.43137264
366.48764038;2.58823538
366.48764038;2.52941179
366.49176025;2.64705873
366.49581909;2.82352948
366.50000000;2.70588231
366.50000000;2.86274505
366.50402832;2.76470590
366.50811768;2.54901958
366.51226807;2.86274505
366.51632690;2.84313726
366.52041626;2.58823538
366.52041626;2.35294127
366.52450562;2.64705873
366.52859497;2.33333325
366.53271484;2.21568632
366.53271484;1.88235295
366.53680420;1.86274505
366.54092407;1.94117641
366.54498291;1.92156863
366.54498291;1.94117641
366.54910278;1.98039210
366.55319214;2.23529410
366.55731201;2.52941179
366.56137085;2.86274505
366.56549072;2.84313726
366.56549072;2.82352948
366.56958008;3.01960778
366.57366943;3.17647052
366.57778931;2.96078420
366.57778931;2.88235283
366.58184814;2.80392146
366.58593750;2.76470590
366.59008789;2.58823538
366.59008789;2.58823538
366.59414673;2.86274505
366.59826660;2.62745094
366.60235596;2.78431368
366.60644531;2.78431368
366.61059570;2.62745094
366.61059570;2.58823538
366.61462402;2.45098042
366.61871338;2.41176462
366.62283325;1.98039210
366.62283325;1.84313726
366.62692261;1.58823526
366.63098145;1.39215684
366.63513184;1.39215684
366.63513184;1.41176474
366.63928223;1.52941179
366.64331055;1.68627453
366.64743042;1.96078432
366.65148926;2.19607854
366.65576172;2.45098042
366.65576172;2.43137264
366.65969849;2.50980401
366.66375732;2.56862736
366.66790771;2.49019599
366.66790771;2.60784316
366.67199707;2.96078420
366.67608643;2.96078420
366.68014526;2.84313726
366.68014526;2.90196085
366.68426514;2.96078420
366.68838501;2.68627453
366.69247437;2.94117641
366.69653320;2.66666675
366.70068359;2.68627453
366.70068359;2.80392146
366.70474243;2.76470590
366.70886230;2.35294127
366.71295166;2.33333325
366.71295166;2.33333325
366.71704102;2.27450991
366.72122192;2.37254906
366.72528076;2.43137264
366.72528076;2.45098042
366.72930908;2.33333325
366.73342896;2.56862736
366.73751831;2.47058821
366.74163818;2.56862736
366.74575806;2.72549009
366.74575806;2.35294127
366.74984741;2.45098042
366.75390625;2.47058821
366.75802612;2.41176462
366.75802612;2.27450991
366.76214600;2.39215684
366.76623535;2.78431368
366.77029419;2.45098042
366.77029419;2.74509811
366.77441406;2.90196085
366.77850342;2.86274505
366.78259277;2.64705873
366.78668213;2.96078420
366.79083252;2.90196085
366.79083252;2.68627453
366.79486084;2.94117641
366.79895020;2.76470590
366.80307007;2.49019599
366.80307007;2.11764717
366.80715942;1.84313726
366.81127930;1.96078432
366.81536865;1.96078432
366.81536865;2.03921580
366.81945801;2.17647052
366.82354736;2.31372547
366.82763672;2.31372547
366.83175659;2.27450991
366.83584595;2.35294127
366.83584595;2.09803915
366.83993530;2.13725495
366.84402466;2.23529410
366.84814453;2.41176462
366.84814453;2.23529410
366.85226440;2.37254906
366.85635376;2.60784316
366.86041260;2.35294127
366.86041260;2.27450991
366.86450195;2.35294127
366.86859131;2.37254906
366.87271118;2.92156863
366.87680054;3.01960778
366.88088989;3.07843137
366.88088989;3.25490189
366.88500977;3.37254906
366.88906860;2.78431368
366.89318848;2.88235283
366.89318848;2.74509811
366.89727783;2.43137264
366.90136719;2.31372547
366.90551758;1.96078432
366.90551758;1.86274505
366.90957642;1.68627453
366.91369629;1.76470590
366.91778564;1.66666663
366.92190552;1.78431368
366.92599487;2.11764717
366.92599487;2.05882359
366.93005371;2.21568632
366.93414307;2.47058821
366.93826294;2.45098042
366.93826294;2.47058821
366.94229126;2.56862736
366.94644165;2.54901958
366.95056152;2.50980401
366.95056152;2.74509811
366.95462036;2.72549009
366.95877075;2.80392146
366.96282959;2.88235283
366.96691895;2.82352948
366.97106934;2.64705873
366.97106934;2.76470590
366.97512817;2.68627453
366.97918701;2.50980401
366.98333740;2.33333325
366.98333740;2.62745094
366.98739624;2.49019599
366.99148560;2.33333325
366.99560547;2.49019599
366.99560547;2.60784316
366.99969482;2.49019599
367.00381470;2.09803915
367.00790405;2.09803915
367.01196289;1.88235295
367.01611328;1.78431368
367.01611328;1.60784316
367.02014160;1.78431368
367.02432251;2.05882359
367.02838135;1.96078432
367.02838135;2.17647052
367.03247070;2.39215684
367.03656006;2.41176462
367.04071045;2.43137264
367.04071045;2.60784316
367.04473877;2.78431368
367.04882813;2.80392146
367.05294800;3.39215684
367.05703735;3.25490189
367.06115723;3.13725495
367.06115723;3.11764717
367.06527710;2.96078420
367.06933594;2.66666675
367.07345581;2.80392146
367.07345581;2.82352948
367.07751465;2.62745094
367.08163452;2.74509811
367.08572388;2.64705873
367.08572388;2.35294127
367.08981323;2.19607854
367.09393311;2.19607854
367.09802246;2.33333325
367.10214233;2.23529410
367.10623169;2.52941179
367.10623169;2.23529410
367.11035156;2.31372547
367.11441040;2.43137264
367.11849976;2.25490189
367.11849976;2.15686274
367.12255859;2.23529410
367.12667847;2.37254906
367.13076782;2.41176462
367.13076782;2.31372547
367.13488770;2.54901958
367.13897705;2.60784316
367.14306641;2.70588231
367.14715576;2.50980401
367.15127563;2.82352948
367.15127563;2.96078420
367.15542603;2.52941179
367.15945435;2.56862736
367.16354370;2.64705873
367.16354370;2.58823538
367.16763306;2.17647052
367.17169189;2.27450991
367.17587280;2.47058821
367.17587280;2.13725495
367.17993164;2.17647052
367.18402100;2.09803915
367.18814087;2.13725495
367.18814087;2.00000000
367.19226074;2.21568632
367.19631958;2.25490189
367.19631958;2.19607854
367.20040894;2.35294127
367.20449829;2.35294127
367.20867920;2.27450991
367.20867920;2.33333325
367.21270752;2.45098042
367.21679688;2.47058821
367.22094727;2.41176462
367.22094727;2.52941179
367.22506714;2.58823538
367.22918701;2.45098042
367.23327637;2.76470590
367.23730469;2.66666675
367.24145508;2.98039222
367.24145508;3.19607854
367.24548340;3.03921580
367.24957275;2.98039222
367.25372314;3.15686274
367.25372314;2.98039222
367.25778198;2.72549009
367.26184082;2.52941179
367.26599121;2.41176462
367.26599121;2.35294127
367.27008057;2.29411769
367.27416992;2.07843137
367.27828979;1.72549021
367.28234863;1.82352936
367.28643799;2.03921580
367.28643799;1.78431368
367.29055786;2.01960778
367.29461670;2.33333325
367.29873657;2.11764717
367.29873657;2.09803915
367.30282593;2.25490189
367.30694580;2.27450991
367.31103516;2.21568632
367.31103516;2.37254906
367.31512451;2.49019599
367.31918335;2.31372547
367.32333374;2.56862736
367.32333374;2.74509811
367.32739258;2.74509811
367.33148193;2.70588231
367.33148193;2.92156863
367.33560181;2.86274505
367.33966064;3.39215684
367.34381104;3.56862736
367.34381104;2.88235283
367.34786987;2.98039222
367.35198975;3.01960778
367.35610962;2.72549009
367.35610962;1.90196073
367.36016846;1.68627453
367.36428833;1.76470590
367.36837769;1.88235295
367.36837769;1.94117641
367.37246704;2.29411769
367.37683105;2.27450991
367.37683105;2.33333325
367.38064575;2.41176462
367.38473511;2.54901958
367.38885498;2.49019599
367.38885498;2.56862736
367.39294434;2.70588231
367.39703369;2.70588231
367.40115356;2.62745094
367.40115356;2.70588231
367.40542603;2.80392146
367.40933228;2.68627453
367.41345215;2.98039222
367.41345215;3.11764717
367.41751099;2.94117641
367.42163086;3.07843137
367.42163086;3.03921580
367.42572021;3.19607854
367.42980957;2.68627453
367.43392944;2.50980401
367.43392944;2.62745094
367.43801880;2.27450991
367.44213867;1.98039210
367.44619751;1.86274505
367.44619751;1.72549021
367.45028687;1.86274505
367.45440674;2.05882359
367.45852661;2.13725495
367.45852661;2.15686274
367.46258545;2.47058821
367.46670532;2.39215684
367.46670532;2.19607854
367.47082520;2.45098042
367.47488403;2.45098042
367.47897339;2.05882359
367.47897339;2.01960778
367.48309326;2.15686274
367.48715210;1.92156863
367.49127197;1.74509799
367.49127197;1.92156863
367.49536133;2.01960778
367.49945068;1.92156863
367.50354004;2.15686274
367.50354004;2.64705873
367.50765991;2.64705873
367.51174927;2.60784316
367.51174927;2.94117641
367.51580811;2.82352948
367.51992798;2.52941179
367.52407837;2.35294127
367.52407837;2.33333325
367.52810669;2.03921580
367.53216553;2.17647052
367.53631592;2.37254906
367.53631592;2.39215684
367.54043579;2.45098042
367.54446411;2.60784316
367.54861450;2.64705873
367.54861450;2.56862736
367.55270386;2.49019599
367.55679321;2.60784316
367.55679321;2.45098042
367.56091309;2.27450991
367.56494141;2.39215684
367.56909180;2.47058821
367.56909180;2.58823538
367.57318115;2.64705873
367.57736206;2.92156863
367.58139038;2.92156863
367.58139038;2.86274505
367.58547974;2.88235283
367.58959961;2.82352948
367.59384155;2.86274505
367.59384155;3.01960778
367.59774780;3.00000000
367.60186768;2.80392146
367.60186768;2.98039222
367.60595703;2.80392146
367.61013794;2.49019599
367.61413574;2.60784316
367.61413574;2.54901958
367.61825562;2.35294127
367.62231445;2.43137264
367.62643433;2.52941179
367.62643433;2.58823538
367.63052368;2.52941179
367.63461304;2.66666675
367.63876343;2.41176462
367.63876343;2.33333325
367.64282227;2.19607854
367.64691162;2.17647052
367.64691162;1.84313726
367.65103149;2.01960778
367.65509033;2.23529410
367.65927124;2.13725495
367.65927124;2.21568632
367.66329956;2.43137264
367.66833496;2.62745094
367.67147827;2.80392146
367.67147827;2.84313726
367.67559814;2.80392146
367.67971802;2.92156863
367.68377686;2.82352948
367.68377686;2.84313726
367.68795776;2.66666675
367.69198608;2.94117641
367.69198608;3.23529410
367.69607544;2.96078420
367.70019531;3.05882359
367.70428467;3.03921580
367.70428467;2.90196085
367.70840454;2.54901958
367.71246338;2.60784316
367.71658325;2.64705873
367.71658325;2.19607854
367.72064209;2.21568632
367.72476196;2.25490189
367.72882080;2.11764717
367.72882080;1.76470590
367.73291016;1.82352936
367.73703003;1.74509799
367.73703003;1.72549021
367.74111938;1.78431368
367.74530029;1.78431368
367.74935913;1.80392158
367.74935913;2.07843137
367.75341797;2.17647052
367.75750732;2.17647052
367.76162720;2.19607854
367.76162720;2.37254906
367.76571655;2.49019599
367.76977539;2.35294127
367.77395630;2.52941179
367.77395630;2.64705873
367.77798462;2.50980401
367.78207397;2.58823538
367.78207397;2.68627453
367.78616333;2.39215684
367.79031372;2.54901958
367.79437256;3.03921580
367.79437256;3.19607854
367.79846191;2.94117641
367.80255127;2.82352948
367.80667114;2.86274505
367.80667114;2.35294127
367.81076050;1.98039210
367.81484985;1.68627453
367.81896973;1.35294116
367.81896973;1.50980389
367.82302856;1.70588231
367.82717896;1.88235295
367.82717896;1.98039210
367.83123779;2.07843137
367.83541870;2.31372547
367.83944702;2.15686274
367.83944702;2.29411769
367.84353638;2.52941179
367.84759521;2.54901958
367.85174561;2.70588231
367.85174561;2.76470590
367.85583496;2.90196085
367.85989380;2.78431368
367.86404419;2.66666675
367.86404419;2.64705873
367.86810303;2.52941179
367.87225342;2.80392146
367.87225342;2.86274505
367.87631226;2.78431368
367.88037109;2.98039222
367.88452148;3.05882359
367.88452148;2.98039222
367.88861084;2.70588231
367.89270020;2.90196085
367.89706421;2.60784316
367.89706421;2.37254906
367.90090942;2.29411769
367.90499878;2.11764717
367.90908813;1.92156863
367.90908813;1.92156863
367.91317749;1.84313726
367.91729736;1.98039210
367.91729736;1.98039210
367.92138672;2.00000000
367.92547607;2.07843137
367.92956543;2.01960778
367.92956543;2.27450991
367.93365479;2.58823538
367.93780518;2.60784316
367.94186401;2.62745094
367.94186401;2.78431368
367.94592285;2.84313726
367.95007324;2.56862736
367.95419312;2.66666675
367.95419312;2.58823538
367.95828247;2.41176462
367.96234131;2.33333325
367.96234131;2.41176462
367.96643066;2.47058821
367.97052002;2.37254906
367.97467041;2.90196085
367.97467041;3.09803915
367.97872925;2.76470590
367.98284912;2.78431368
367.98693848;3.01960778
367.98693848;2.50980401
367.99102783;2.11764717
367.99511719;2.07843137
367.99926758;2.00000000
367.99926758;1.92156863
368.00329590;1.98039210
368.00738525;2.11764717
368.00738525;2.17647052
368.01150513;2.50980401
368.01559448;2.56862736
368.01971436;2.54901958
368.01971436;2.72549009
368.02380371;2.78431368
368.02786255;2.64705873
368.03201294;2.70588231
368.03201294;2.84313726
368.03607178;2.70588231
368.04019165;2.68627453
368.04428101;2.66666675
368.04428101;2.78431368
368.04837036;2.62745094
368.05245972;2.88235283
368.05245972;3.27450991
368.05654907;2.88235283
368.06063843;3.05882359
368.06475830;3.13725495
368.06475830;3.27450991
368.06884766;2.76470590
368.07293701;2.56862736
368.07705688;2.76470590
368.07705688;2.23529410
368.08111572;1.86274505
368.08526611;1.80392158
368.08938599;1.50980389
368.08938599;1.50980389
368.09341431;1.64705884
368.09750366;1.72549021
368.09750366;1.88235295
368.10165405;2.01960778
368.10574341;2.33333325
368.10983276;2.27450991
368.10983276;2.50980401
368.11389160;2.60784316
368.11801147;2.60784316
368.12210083;2.64705873
368.12210083;2.92156863
368.12619019;2.66666675
368.13031006;2.45098042
368.13439941;2.54901958
368.13439941;2.39215684
368.13848877;2.01960778
368.14260864;1.96078432
368.14260864;2.17647052
368.14669800;2.07843137
368.15078735;2.11764717
368.15490723;2.41176462
368.15490723;2.58823538
368.15896606;2.54901958
368.16302490;2.62745094
368.16717529;2.78431368
368.16717529;2.43137264
368.17129517;2.54901958
368.17535400;2.72549009
368.17947388;2.86274505
368.17947388;2.66666675
368.18350220;2.45098042
368.18765259;2.88235283
368.18765259;2.50980401
368.19171143;2.23529410
368.19583130;2.09803915
368.19998169;1.84313726
368.19998169;1.86274505
368.20410156;2.03921580
368.20812988;2.09803915
368.21228027;2.29411769
368.21228027;2.66666675
368.21630859;2.76470590
368.22036743;2.72549009
368.22454834;2.84313726
368.22454834;3.07843137
368.22866821;2.82352948
368.23275757;2.94117641
368.23275757;3.09803915
368.23681641;3.03921580
368.24087524;3.13725495
368.24499512;3.15686274
368.24499512;3.33333325
368.24908447;3.17647052
368.25314331;3.52941179
368.25729370;3.45098042
368.25729370;3.07843137
368.26138306;2.92156863
368.26547241;2.90196085
368.26956177;2.31372547
368.26956177;2.13725495
368.27368164;2.01960778
368.27777100;1.66666663
368.27777100;1.68627453
368.28186035;1.76470590
368.28591919;1.88235295
368.29010010;1.76470590
368.29010010;2.03921580
368.29415894;2.33333325
368.29827881;2.25490189
368.30233765;2.49019599
368.30233765;2.52941179
368.30645752;2.68627453
368.31051636;2.64705873
368.31463623;2.82352948
368.31463623;2.94117641
368.31872559;2.94117641
368.32284546;3.00000000
368.32284546;3.15686274
368.32693481;2.68627453
368.33102417;2.80392146
368.33511353;2.98039222
368.33511353;2.90196085
368.33923340;2.78431368
368.34329224;2.80392146
368.34741211;2.68627453
368.34741211;2.60784316
368.35150146;2.45098042
368.35559082;2.19607854
368.35971069;1.98039210
368.35971069;1.96078432
368.36376953;2.11764717
368.36788940;2.07843137
368.36788940;2.21568632
368.37197876;2.31372547
368.37606812;2.29411769
368.38015747;2.31372547
368.38015747;2.33333325
368.38427734;2.35294127
368.38833618;2.29411769
368.39248657;2.43137264
368.39248657;2.56862736
368.39654541;2.47058821
368.40066528;2.47058821
368.40487671;2.50980401
368.40487671;2.62745094
368.40884399;2.43137264
368.41296387;2.41176462
368.41296387;2.80392146
368.41702271;2.70588231
368.42114258;2.43137264
368.42529297;2.52941179
368.42529297;2.45098042
368.42932129;2.31372547
368.43341064;2.29411769
368.43759155;2.11764717
368.43759155;2.15686274
368.44161987;2.39215684
368.44570923;2.41176462
368.44982910;2.15686274
368.44982910;2.50980401
368.45404053;2.54901958
368.45800781;2.31372547
368.45800781;2.23529410
368.46209717;2.13725495
368.46615601;2.27450991
368.47027588;2.13725495
368.47027588;2.17647052
368.47442627;2.27450991
368.47848511;2.29411769
368.48260498;2.25490189
368.48260498;2.39215684
368.48666382;2.45098042
368.49078369;2.52941179
368.49487305;2.72549009
368.49487305;2.74509811
368.49893188;2.82352948
368.50308228;3.03921580
368.50308228;3.13725495
368.50714111;2.78431368
368.51126099;2.88235283
368.51538086;2.96078420
368.51538086;2.74509811
368.51943970;2.45098042
368.52355957;2.41176462
368.52764893;2.33333325
368.52764893;2.17647052
368.53170776;2.17647052
368.53579712;2.25490189
368.53997803;2.07843137
368.53997803;1.90196073
368.54397583;2.11764717
368.54815674;2.05882359
368.54815674;2.05882359
368.55221558;2.23529410
368.55627441;2.09803915
368.56042480;2.21568632
368.56042480;2.21568632
368.56448364;2.29411769
368.56860352;2.13725495
368.57269287;2.17647052
368.57269287;2.21568632
368.57681274;2.21568632
368.58090210;2.31372547
368.58499146;2.47058821
368.58499146;2.54901958
368.58908081;2.64705873
368.59320068;2.82352948
368.59320068;2.74509811
368.59725952;2.66666675
368.60137939;2.60784316
368.60552979;2.62745094
368.60552979;2.35294127
368.60980225;2.29411769
368.61361694;2.62745094
368.61776733;2.74509811
368.61776733;2.72549009
368.62185669;2.72549009
368.62594604;2.74509811
368.63006592;2.60784316
368.63006592;2.54901958
368.63415527;2.41176462
368.63827515;2.27450991
368.63827515;2.39215684
368.64230347;2.35294127
368.64642334;2.27450991
368.65054321;2.31372547
368.65054321;2.35294127
368.65463257;2.35294127
368.65872192;2.11764717
368.66281128;2.25490189
368.66281128;2.52941179
368.66696167;2.50980401
368.67098999;2.45098042
368.67514038;2.72549009
368.67514038;2.86274505
368.67919922;2.84313726
368.68331909;2.72549009
368.68331909;3.01960778
368.68737793;3.03921580
368.69146729;2.88235283
368.69558716;2.72549009
368.69558716;2.74509811
368.69967651;2.74509811
368.70385742;2.56862736
368.70791626;2.43137264
368.70791626;2.54901958
368.71197510;2.45098042
368.71606445;2.31372547
368.72018433;1.98039210
368.72018433;1.82352936
368.72430420;1.76470590
368.72836304;1.72549021
368.72836304;1.82352936
368.73245239;2.07843137
368.73654175;2.17647052
368.74066162;2.13725495
368.74066162;2.33333325
368.74478149;2.49019599
368.74887085;2.43137264
368.75296021;2.62745094
368.75296021;2.78431368
368.75701904;2.64705873
368.76113892;2.60784316
368.76525879;2.56862736
368.76525879;2.47058821
368.76937866;2.29411769
368.77343750;2.47058821
368.77343750;2.76470590
368.77752686;2.86274505
368.78158569;2.74509811
368.78570557;2.88235283
368.78570557;2.88235283
368.79138184;2.70588231
368.79388428;2.80392146
368.79800415;2.92156863
368.79800415;2.60784316
368.80209351;2.45098042
368.80615234;2.72549009
368.81030273;2.21568632
368.81030273;1.82352936
368.81436157;1.68627453
368.81851196;1.45098042
368.81851196;1.49019611
368.82257080;1.70588231
368.82666016;2.00000000
368.83078003;2.17647052
368.83078003;2.33333325
368.83486938;2.66666675
368.83898926;2.58823538
368.84307861;2.62745094
368.84307861;2.74509811
368.84713745;2.62745094
368.85125732;2.66666675
368.85537720;2.80392146
368.85537720;2.80392146
368.85943604;2.66666675
368.86355591;2.66666675
368.86355591;2.58823538
368.86764526;2.35294127
368.87170410;2.37254906
368.87585449;2.52941179
368.87585449;2.54901958
368.87991333;2.86274505
368.88403320;3.11764717
368.88812256;3.00000000
368.88812256;3.09803915
368.89227295;3.03921580
368.89633179;2.66666675
368.90042114;1.98039210
368.90042114;2.03921580
368.90454102;1.76470590
368.90863037;1.35294116
368.90863037;1.56862748
368.91268921;1.62745094
368.91674805;1.72549021
368.92089844;1.72549021
368.92089844;1.78431368
368.92498779;2.13725495
368.92907715;1.98039210
368.93322754;2.17647052
368.93322754;2.33333325
368.93731689;2.21568632
368.94137573;2.27450991
368.94546509;2.31372547
368.94546509;2.27450991
368.94955444;2.13725495
368.95373535;2.29411769
368.95373535;2.54901958
368.95776367;2.64705873
368.96185303;2.72549009
368.96597290;3.23529410
368.96597290;3.29411769
368.97006226;2.84313726
368.97418213;3.03921580
368.97827148;2.68627453
368.97827148;2.13725495
368.98233032;1.94117641
368.98641968;2.17647052
368.99053955;2.15686274
368.99053955;2.27450991
368.99462891;2.66666675
368.99880981;2.66666675
368.99880981;2.56862736
369.00283813;2.47058821
369.00689697;2.47058821
369.01101685;2.45098042
369.01101685;2.54901958
369.01507568;2.60784316
369.01919556;2.52941179
369.02331543;2.60784316
369.02331543;2.76470590
369.02740479;2.62745094
369.03143311;2.88235283
369.03561401;3.11764717
369.03561401;3.13725495
369.03967285;3.11764717
369.04379272;3.15686274
369.04379272;3.23529410
369.04788208;3.11764717
369.05197144;3.37254906
369.05606079;3.29411769
369.05606079;2.86274505
369.06015015;3.05882359
369.06427002;3.29411769
369.06838989;3.00000000
369.06838989;2.49019599
369.07244873;2.35294127
369.07653809;2.56862736
369.08065796;2.05882359
369.08065796;1.62745094
369.08474731;1.68627453
369.08886719;1.49019611
369.08886719;1.64705884
369.09295654;1.88235295
369.09701538;1.90196073
369.10113525;1.96078432
369.10113525;2.05882359
369.10528564;2.25490189
369.10931396;2.29411769
369.11343384;2.56862736
369.11343384;2.88235283
369.11752319;2.86274505
369.12158203;2.92156863
369.12585449;3.13725495
369.12585449;3.33333325
369.12979126;3.21568632
369.13391113;3.05882359
369.13391113;3.17647052
369.13800049;2.96078420
369.14212036;2.80392146
369.14620972;2.76470590
369.14620972;2.68627453
369.15026855;2.52941179
369.15438843;2.80392146
369.15850830;2.56862736
369.15850830;2.45098042
369.16256714;2.37254906
369.16668701;2.37254906
369.17077637;1.76470590
369.17077637;2.21568632
369.17489624;2.23529410
369.17895508;1.88235295
369.17895508;1.84313726
369.18304443;1.74509799
369.18713379;1.54901958
369.19128418;1.64705884
369.19128418;1.90196073
369.19534302;2.15686274
369.19946289;2.17647052
369.20361328;2.41176462
369.20361328;2.68627453
369.20764160;2.60784316
369.21173096;2.76470590
369.21585083;3.13725495
369.21585083;3.41176462
369.21994019;3.17647052
369.22402954;3.05882359
369.22402954;3.25490189
369.22817993;2.68627453
369.23233032;2.35294127
369.23635864;2.03921580
369.23635864;1.76470590
369.24041748;1.86274505
369.24450684;1.98039210
369.24862671;2.00000000
369.24862671;1.98039210
369.25268555;2.13725495
369.25680542;2.19607854
369.26089478;2.05882359
369.26089478;2.37254906
369.26495361;2.60784316
369.26910400;2.68627453
369.26910400;2.72549009
369.27319336;2.86274505
369.27728271;2.72549009
369.28143311;2.62745094
369.28143311;2.47058821
369.28546143;2.50980401
369.28958130;2.37254906
369.29367065;2.76470590
369.29367065;2.94117641
369.29772949;2.86274505
369.30184937;2.98039222
369.30593872;2.98039222
369.30593872;2.80392146
369.31002808;2.47058821
369.31423950;2.25490189
369.31423950;2.05882359
369.31826782;1.80392158
369.32235718;1.66666663
369.32644653;1.82352936
369.32644653;1.70588231
369.33050537;1.94117641
369.33462524;2.35294127
369.33874512;2.35294127
369.33874512;2.31372547
369.34283447;2.58823538
369.34686279;2.68627453
369.35104370;2.56862736
369.35104370;2.70588231
369.35513306;2.88235283
369.35928345;2.76470590
369.35928345;2.82352948
369.36328125;2.88235283
369.36740112;2.88235283
369.37149048;2.90196085
369.37149048;2.92156863
369.37557983;2.82352948
369.37966919;2.72549009
369.38378906;2.49019599
369.38378906;2.50980401
369.38787842;2.33333325
369.39196777;2.49019599
369.39608765;2.37254906
369.39608765;2.45098042
369.40014648;2.35294127
369.40435791;2.25490189
369.40435791;2.19607854
369.40835571;2.03921580
369.41244507;2.17647052
369.41656494;2.39215684
369.41656494;2.33333325
369.42065430;2.49019599
369.42474365;2.58823538
369.42889404;2.47058821
369.42889404;2.37254906
369.43292236;2.52941179
369.43704224;2.41176462
369.44113159;2.45098042
369.44113159;2.60784316
369.44525146;2.49019599
369.44934082;2.45098042
369.44934082;2.56862736
369.45346069;2.52941179
369.45755005;2.35294127
369.46163940;2.47058821
369.46163940;2.62745094
369.46569824;2.66666675
369.46978760;2.50980401
369.47393799;2.90196085
369.47393799;3.09803915
369.47799683;2.74509811
369.48205566;2.60784316
369.48620605;2.62745094
369.48620605;2.41176462
369.49029541;2.03921580
369.49438477;2.00000000
369.49438477;1.98039210
369.49847412;1.92156863
369.50256348;2.13725495
369.50668335;2.47058821
369.50668335;2.52941179
369.51077271;2.66666675
369.51486206;2.58823538
369.51898193;2.47058821
369.51898193;2.31372547
369.52307129;2.41176462
369.52716064;2.09803915
369.53128052;1.92156863
369.53128052;2.35294127
369.53533936;2.29411769
369.53948975;2.09803915
369.53948975;2.17647052
369.54360962;2.25490189
369.54763794;2.21568632
